0.0002442 -0.31
0.00024426 -0.31
0.00024432 -0.31
0.000244379 -0.31
0.000244439 -0.31
0.000244499 -0.31
0.000244559 -0.31
0.000244618 -0.31
0.000244678 -0.29
0.000244738 -0.285
0.000244798 -0.295
0.000244858 -0.315
0.000244918 -0.305
0.000244978 -0.3
0.000245038 -0.28
0.000245098 -0.275
0.000245158 -0.275
0.000245218 -0.27
0.000245278 -0.26
0.000245339 -0.24
0.000245399 -0.225
0.000245459 -0.215
0.000245519 -0.205
0.00024558 -0.22
0.00024564 -0.205
0.0002457 -0.17
0.000245761 -0.15
0.000245821 -0.155
0.000245881 -0.14
0.000245942 -0.13
0.000246002 -0.115
0.000246063 -0.075
0.000246124 -0.05
0.000246184 -0.06
0.000246245 -0.05
0.000246305 -0.04
0.000246366 -0.015
0.000246427 0.005
0.000246488 0.03
0.000246548 0.045
0.000246609 0.07
0.00024667 0.08
0.000246731 0.105
0.000246792 0.13
0.000246853 0.185
0.000246914 0.225
0.000246975 0.255
0.000247036 0.27
0.000247097 0.305
0.000247158 0.345
0.000247219 0.4
0.00024728 0.43
0.000247341 0.46
0.000247402 0.46
0.000247463 0.475
0.000247525 0.52
0.000247586 0.555
0.000247647 0.585
0.000247709 0.575
0.00024777 0.575
0.000247831 0.565
0.000247893 0.57
0.000247954 0.56
0.000248016 0.55
0.000248077 0.53
0.000248139 0.485
0.000248201 0.48
0.000248262 0.465
0.000248324 0.46
0.000248385 0.42
0.000248447 0.385
0.000248509 0.355
0.000248571 0.305
0.000248633 0.285
0.000248694 0.255
0.000248756 0.21
0.000248818 0.165
0.00024888 0.12
0.000248942 0.105
0.000249004 0.085
0.000249066 0.075
0.000249128 0.04
0.00024919 0.005
0.000249252 -0.04
0.000249314 -0.045
0.000249377 -0.055
0.000249439 -0.04
0.000249501 -0.07
0.000249563 -0.1
0.000249626 -0.125
0.000249688 -0.135
0.00024975 -0.14
0.000249813 -0.155
0.000249875 -0.19
0.000249938 -0.19
0.00025 -0.195
0.000250063 -0.205
0.000250125 -0.2
0.000250188 -0.215
0.00025025 -0.25
0.000250313 -0.285
0.000250376 -0.295
0.000250438 -0.29
0.000250501 -0.285
0.000250564 -0.265
0.000250627 -0.27
0.000250689 -0.285
0.000250752 -0.33
0.000250815 -0.35
0.000250878 -0.35
0.000250941 -0.31
0.000251004 -0.3
0.000251067 -0.305
0.00025113 -0.33
0.000251193 -0.35
0.000251256 -0.34
0.000251319 -0.335
0.000251383 -0.335
0.000251446 -0.33
0.000251509 -0.34
0.000251572 -0.345
0.000251636 -0.335
0.000251699 -0.335
0.000251762 -0.33
0.000251826 -0.325
0.000251889 -0.34
0.000251953 -0.34
0.000252016 -0.335
0.00025208 -0.315
0.000252143 -0.31
0.000252207 -0.315
0.00025227 -0.33
0.000252334 -0.32
0.000252398 -0.315
0.000252461 -0.28
0.000252525 -0.275
0.000252589 -0.28
0.000252653 -0.28
0.000252717 -0.275
0.000252781 -0.25
0.000252845 -0.23
0.000252908 -0.23
0.000252972 -0.245
0.000253036 -0.26
0.0002531 -0.25
0.000253165 -0.235
0.000253229 -0.215
0.000253293 -0.21
0.000253357 -0.25
0.000253421 -0.285
0.000253485 -0.28
0.00025355 -0.245
0.000253614 -0.235
0.000253678 -0.235
0.000253743 -0.26
0.000253807 -0.255
0.000253872 -0.26
0.000253936 -0.245
0.000254001 -0.215
0.000254065 -0.23
0.00025413 -0.245
0.000254194 -0.275
0.000254259 -0.295
0.000254323 -0.28
0.000254388 -0.255
0.000254453 -0.25
0.000254518 -0.265
0.000254582 -0.3
0.000254647 -0.29
0.000254712 -0.29
0.000254777 -0.26
0.000254842 -0.265
0.000254907 -0.275
0.000254972 -0.28
0.000255037 -0.285
0.000255102 -0.265
0.000255167 -0.24
0.000255232 -0.265
0.000255297 -0.295
0.000255363 -0.33
0.000255428 -0.34
0.000255493 -0.295
0.000255558 -0.285
0.000255624 -0.295
0.000255689 -0.33
0.000255754 -0.345
0.00025582 -0.345
0.000255885 -0.32
0.000255951 -0.31
0.000256016 -0.335
0.000256082 -0.34
0.000256148 -0.35
0.000256213 -0.34
0.000256279 -0.35
0.000256345 -0.315
0.00025641 -0.335
0.000256476 -0.345
0.000256542 -0.325
0.000256608 -0.32
0.000256674 -0.3
0.000256739 -0.305
0.000256805 -0.305
0.000256871 -0.325
0.000256937 -0.355
0.000257003 -0.37
0.000257069 -0.35
0.000257136 -0.345
0.000257202 -0.325
0.000257268 -0.355
0.000257334 -0.365
0.0002574 -0.355
0.000257467 -0.365
0.000257533 -0.35
0.000257599 -0.345
0.000257666 -0.34
0.000257732 -0.355
0.000257798 -0.35
0.000257865 -0.34
0.000257931 -0.345
0.000257998 -0.345
0.000258065 -0.36
0.000258131 -0.36
0.000258198 -0.355
0.000258264 -0.34
0.000258331 -0.33
0.000258398 -0.34
0.000258465 -0.35
0.000258532 -0.37
0.000258598 -0.36
0.000258665 -0.345
0.000258732 -0.36
0.000258799 -0.37
0.000258866 -0.37
0.000258933 -0.37
0.000259 -0.375
0.000259067 -0.36
0.000259134 -0.355
0.000259202 -0.355
0.000259269 -0.365
0.000259336 -0.39
0.000259403 -0.39
0.000259471 -0.38
0.000259538 -0.365
0.000259605 -0.385
0.000259673 -0.38
0.00025974 -0.375
0.000259808 -0.375
0.000259875 -0.355
0.000259943 -0.34
0.00026001 -0.335
0.000260078 -0.335
0.000260146 -0.35
0.000260213 -0.365
0.000260281 -0.375
0.000260349 -0.365
0.000260417 -0.37
0.000260485 -0.375
0.000260552 -0.395
0.00026062 -0.4
0.000260688 -0.38
0.000260756 -0.35
0.000260824 -0.345
0.000260892 -0.345
0.00026096 -0.35
0.000261028 -0.36
0.000261097 -0.355
0.000261165 -0.345
0.000261233 -0.365
0.000261301 -0.395
0.00026137 -0.4
0.000261438 -0.395
0.000261506 -0.35
0.000261575 -0.325
0.000261643 -0.335
0.000261712 -0.35
0.00026178 -0.385
0.000261849 -0.37
0.000261917 -0.36
0.000261986 -0.345
0.000262055 -0.33
0.000262123 -0.335
0.000262192 -0.34
0.000262261 -0.36
0.000262329 -0.34
0.000262398 -0.335
0.000262467 -0.345
0.000262536 -0.39
0.000262605 -0.4
0.000262674 -0.395
0.000262743 -0.36
0.000262812 -0.345
0.000262881 -0.345
0.00026295 -0.345
0.000263019 -0.34
0.000263089 -0.35
0.000263158 -0.315
0.000263227 -0.29
0.000263296 -0.3
0.000263366 -0.32
0.000263435 -0.325
0.000263505 -0.305
0.000263574 -0.31
0.000263644 -0.28
0.000263713 -0.265
0.000263783 -0.245
0.000263852 -0.235
0.000263922 -0.185
0.000263992 -0.1
0.000264061 -0.005
0.000264131 0.035
0.000264201 0.01
0.000264271 -0.03
0.00026434 -0.07
0.00026441 -0.09
0.00026448 -0.1
0.00026455 -0.115
0.00026462 -0.135
0.00026469 -0.16
0.00026476 -0.185
0.000264831 -0.18
0.000264901 -0.185
0.000264971 -0.225
0.000265041 -0.235
0.000265111 -0.26
0.000265182 -0.29
0.000265252 -0.305
0.000265322 -0.315
0.000265393 -0.36
0.000265463 -0.385
0.000265534 -0.385
0.000265604 -0.38
0.000265675 -0.355
0.000265745 -0.335
0.000265816 -0.32
0.000265887 -0.32
0.000265957 -0.335
0.000266028 -0.33
0.000266099 -0.335
0.00026617 -0.33
0.000266241 -0.34
0.000266312 -0.37
0.000266383 -0.425
0.000266454 -0.465
0.000266525 -0.46
0.000266596 -0.32
0.000266667 -0.035
0.000266738 0.4
0.000266809 0.895
0.00026688 1.335
0.000266951 1.685
0.000267023 1.9
0.000267094 2.01
0.000267165 1.98
0.000267237 1.815
0.000267308 1.47
0.00026738 0.94
0.000267451 0.3
0.000267523 -0.34
0.000267594 -0.765
0.000267666 -0.725
0.000267738 -0.55
0.000267809 -0.45
0.000267881 -0.445
0.000267953 -0.46
0.000268025 -0.455
0.000268097 -0.435
0.000268168 -0.415
0.00026824 -0.39
0.000268312 -0.395
0.000268384 -0.415
0.000268456 -0.435
0.000268528 -0.45
0.000268601 -0.44
0.000268673 -0.415
0.000268745 -0.405
0.000268817 -0.415
0.000268889 -0.425
0.000268962 -0.43
0.000269034 -0.43
0.000269107 -0.435
0.000269179 -0.425
0.000269251 -0.42
0.000269324 -0.42
0.000269397 -0.415
0.000269469 -0.41
0.000269542 -0.41
0.000269614 -0.39
0.000269687 -0.39
0.00026976 -0.415
0.000269833 -0.43
0.000269906 -0.455
0.000269978 -0.41
0.000270051 -0.385
0.000270124 -0.38
0.000270197 -0.39
0.00027027 -0.385
0.000270343 -0.38
0.000270416 -0.385
0.00027049 -0.355
0.000270563 -0.355
0.000270636 -0.35
0.000270709 -0.35
0.000270783 -0.36
0.000270856 -0.345
0.000270929 -0.315
0.000271003 -0.29
0.000271076 -0.29
0.00027115 -0.32
0.000271223 -0.3
0.000271297 -0.275
0.00027137 -0.255
0.000271444 -0.245
0.000271518 -0.255
0.000271592 -0.25
0.000271665 -0.225
0.000271739 -0.215
0.000271813 -0.22
0.000271887 -0.19
0.000271961 -0.16
0.000272035 -0.115
0.000272109 -0.075
0.000272183 -0.07
0.000272257 -0.085
0.000272331 -0.095
0.000272405 -0.095
0.00027248 -0.07
0.000272554 -0.02
0.000272628 0.01
0.000272702 0.035
0.000272777 0.015
0.000272851 0.015
0.000272926 0.04
0.000273 0.1
0.000273075 0.145
0.000273149 0.195
0.000273224 0.235
0.000273299 0.25
0.000273373 0.27
0.000273448 0.3
0.000273523 0.355
0.000273598 0.42
0.000273673 0.465
0.000273748 0.495
0.000273823 0.515
0.000273898 0.525
0.000273973 0.555
0.000274048 0.6
0.000274123 0.64
0.000274198 0.65
0.000274273 0.625
0.000274348 0.615
0.000274424 0.605
0.000274499 0.645
0.000274574 0.64
0.00027465 0.6
0.000274725 0.535
0.000274801 0.525
0.000274876 0.55
0.000274952 0.565
0.000275028 0.54
0.000275103 0.52
0.000275179 0.49
0.000275255 0.45
0.00027533 0.415
0.000275406 0.365
0.000275482 0.295
0.000275558 0.26
0.000275634 0.245
0.00027571 0.215
0.000275786 0.165
0.000275862 0.15
0.000275938 0.115
0.000276014 0.085
0.000276091 0.06
0.000276167 0.025
0.000276243 0.03
0.000276319 0.03
0.000276396 0
0.000276472 -0.04
0.000276549 -0.06
0.000276625 -0.095
0.000276702 -0.075
0.000276778 -0.07
0.000276855 -0.075
0.000276932 -0.105
0.000277008 -0.13
0.000277085 -0.14
0.000277162 -0.15
0.000277239 -0.135
0.000277316 -0.17
0.000277393 -0.195
0.000277469 -0.21
0.000277546 -0.21
0.000277624 -0.195
0.000277701 -0.21
0.000277778 -0.21
0.000277855 -0.225
0.000277932 -0.245
0.000278009 -0.26
0.000278087 -0.25
0.000278164 -0.24
0.000278242 -0.24
0.000278319 -0.245
0.000278396 -0.25
0.000278474 -0.255
0.000278552 -0.25
0.000278629 -0.23
0.000278707 -0.225
0.000278784 -0.225
0.000278862 -0.205
0.00027894 -0.2
0.000279018 -0.215
0.000279096 -0.25
0.000279174 -0.285
0.000279252 -0.275
0.00027933 -0.255
0.000279408 -0.245
0.000279486 -0.22
0.000279564 -0.21
0.000279642 -0.235
0.00027972 -0.26
0.000279799 -0.265
0.000279877 -0.26
0.000279955 -0.23
0.000280034 -0.185
0.000280112 -0.16
0.000280191 -0.19
0.000280269 -0.19
0.000280348 -0.175
0.000280426 -0.16
0.000280505 -0.145
0.000280584 -0.145
0.000280662 -0.155
0.000280741 -0.16
0.00028082 -0.15
0.000280899 -0.14
0.000280978 -0.135
0.000281057 -0.13
0.000281136 -0.14
0.000281215 -0.155
0.000281294 -0.17
0.000281373 -0.16
0.000281452 -0.155
0.000281532 -0.165
0.000281611 -0.17
0.00028169 -0.17
0.00028177 -0.165
0.000281849 -0.155
0.000281928 -0.125
0.000282008 -0.13
0.000282087 -0.17
0.000282167 -0.205
0.000282247 -0.22
0.000282326 -0.21
0.000282406 -0.195
0.000282486 -0.205
0.000282566 -0.21
0.000282646 -0.21
0.000282725 -0.185
0.000282805 -0.175
0.000282885 -0.18
0.000282965 -0.195
0.000283046 -0.2
0.000283126 -0.215
0.000283206 -0.235
0.000283286 -0.225
0.000283366 -0.21
0.000283447 -0.225
0.000283527 -0.245
0.000283607 -0.245
0.000283688 -0.25
0.000283768 -0.255
0.000283849 -0.245
0.00028393 -0.27
0.00028401 -0.27
0.000284091 -0.25
0.000284172 -0.255
0.000284252 -0.245
0.000284333 -0.215
0.000284414 -0.215
0.000284495 -0.245
0.000284576 -0.27
0.000284657 -0.29
0.000284738 -0.285
0.000284819 -0.24
0.0002849 -0.235
0.000284981 -0.255
0.000285063 -0.275
0.000285144 -0.32
0.000285225 -0.305
0.000285307 -0.265
0.000285388 -0.255
0.00028547 -0.26
0.000285551 -0.29
0.000285633 -0.335
0.000285714 -0.31
0.000285796 -0.265
0.000285878 -0.27
0.000285959 -0.305
0.000286041 -0.335
0.000286123 -0.335
0.000286205 -0.315
0.000286287 -0.295
0.000286369 -0.29
0.000286451 -0.3
0.000286533 -0.31
0.000286615 -0.31
0.000286697 -0.3
0.000286779 -0.295
0.000286862 -0.285
0.000286944 -0.29
0.000287026 -0.31
0.000287109 -0.32
0.000287191 -0.3
0.000287274 -0.285
0.000287356 -0.295
0.000287439 -0.3
0.000287522 -0.32
0.000287604 -0.345
0.000287687 -0.3
0.00028777 -0.295
0.000287853 -0.3
0.000287936 -0.305
0.000288018 -0.305
0.000288101 -0.315
0.000288184 -0.31
0.000288268 -0.295
0.000288351 -0.29
0.000288434 -0.32
0.000288517 -0.31
0.0002886 -0.315
0.000288684 -0.285
0.000288767 -0.27
0.00028885 -0.265
0.000288934 -0.275
0.000289017 -0.28
0.000289101 -0.3
0.000289184 -0.335
0.000289268 -0.325
0.000289352 -0.325
0.000289436 -0.325
0.000289519 -0.33
0.000289603 -0.34
0.000289687 -0.31
0.000289771 -0.295
0.000289855 -0.29
0.000289939 -0.29
0.000290023 -0.28
0.000290107 -0.275
0.000290192 -0.27
0.000290276 -0.26
0.00029036 -0.27
0.000290444 -0.295
0.000290529 -0.31
0.000290613 -0.31
0.000290698 -0.295
0.000290782 -0.275
0.000290867 -0.285
0.000290951 -0.315
0.000291036 -0.315
0.000291121 -0.31
0.000291206 -0.295
0.00029129 -0.28
0.000291375 -0.28
0.00029146 -0.285
0.000291545 -0.29
0.00029163 -0.295
0.000291715 -0.285
0.0002918 -0.285
0.000291886 -0.26
0.000291971 -0.275
0.000292056 -0.29
0.000292141 -0.28
0.000292227 -0.285
0.000292312 -0.235
0.000292398 -0.21
0.000292483 -0.185
0.000292569 -0.175
0.000292654 -0.15
0.00029274 -0.11
0.000292826 -0.085
0.000292912 -0.025
0.000292997 0.025
0.000293083 0.06
0.000293169 0.05
0.000293255 0.03
0.000293341 -0.005
0.000293427 -0.045
0.000293513 -0.095
0.0002936 -0.115
0.000293686 -0.11
0.000293772 -0.11
0.000293858 -0.09
0.000293945 -0.1
0.000294031 -0.135
0.000294118 -0.18
0.000294204 -0.225
0.000294291 -0.24
0.000294377 -0.23
0.000294464 -0.255
0.000294551 -0.285
0.000294638 -0.31
0.000294724 -0.31
0.000294811 -0.28
0.000294898 -0.26
0.000294985 -0.27
0.000295072 -0.285
0.000295159 -0.32
0.000295247 -0.32
0.000295334 -0.3
0.000295421 -0.26
0.000295508 -0.265
0.000295596 -0.3
0.000295683 -0.37
0.00029577 -0.415
0.000295858 -0.45
0.000295946 -0.435
0.000296033 -0.345
0.000296121 -0.13
0.000296209 0.28
0.000296296 0.79
0.000296384 1.29
0.000296472 1.65
0.00029656 1.865
0.000296648 1.995
0.000296736 2.03
0.000296824 1.97
0.000296912 1.805
0.000297 1.44
0.000297089 0.8
0.000297177 0.16
0.000297265 -0.48
0.000297354 -0.74
0.000297442 -0.535
0.00029753 -0.355
0.000297619 -0.33
0.000297708 -0.36
0.000297796 -0.39
0.000297885 -0.365
0.000297974 -0.34
0.000298063 -0.295
0.000298151 -0.32
0.00029824 -0.365
0.000298329 -0.42
0.000298418 -0.425
0.000298507 -0.41
0.000298597 -0.395
0.000298686 -0.395
0.000298775 -0.405
0.000298864 -0.415
0.000298954 -0.42
0.000299043 -0.41
0.000299133 -0.395
0.000299222 -0.405
0.000299312 -0.405
0.000299401 -0.415
0.000299491 -0.4
0.000299581 -0.37
0.00029967 -0.36
0.00029976 -0.355
0.00029985 -0.365
0.00029994 -0.39
0.00030003 -0.39
0.00030012 -0.375
0.00030021 -0.335
0.0003003 -0.325
0.000300391 -0.34
0.000300481 -0.365
0.000300571 -0.37
0.000300661 -0.34
0.000300752 -0.315
0.000300842 -0.3
0.000300933 -0.31
0.000301023 -0.305
0.000301114 -0.3
0.000301205 -0.29
0.000301296 -0.265
0.000301386 -0.255
0.000301477 -0.26
0.000301568 -0.26
0.000301659 -0.255
0.00030175 -0.275
0.000301841 -0.255
0.000301932 -0.24
0.000302024 -0.245
0.000302115 -0.22
0.000302206 -0.2
0.000302297 -0.16
0.000302389 -0.15
0.00030248 -0.15
0.000302572 -0.145
0.000302663 -0.135
0.000302755 -0.115
0.000302847 -0.1
0.000302939 -0.08
0.00030303 -0.045
0.000303122 -0.025
0.000303214 -0.01
0.000303306 0.015
0.000303398 0.05
0.00030349 0.095
0.000303582 0.12
0.000303674 0.125
0.000303767 0.13
0.000303859 0.165
0.000303951 0.22
0.000304044 0.275
0.000304136 0.31
0.000304229 0.35
0.000304321 0.375
0.000304414 0.395
0.000304507 0.425
0.000304599 0.48
0.000304692 0.545
0.000304785 0.575
0.000304878 0.57
0.000304971 0.575
0.000305064 0.6
0.000305157 0.64
0.00030525 0.635
0.000305344 0.615
0.000305437 0.615
0.00030553 0.605
0.000305623 0.61
0.000305717 0.6
0.00030581 0.575
0.000305904 0.515
0.000305998 0.495
0.000306091 0.44
0.000306185 0.44
0.000306279 0.445
0.000306373 0.41
0.000306466 0.34
0.00030656 0.265
0.000306654 0.245
0.000306748 0.23
0.000306843 0.215
0.000306937 0.175
0.000307031 0.125
0.000307125 0.055
0.00030722 0.035
0.000307314 0.015
0.000307409 0.01
0.000307503 -0.015
0.000307598 -0.04
0.000307692 -0.045
0.000307787 -0.07
0.000307882 -0.055
0.000307977 -0.06
0.000308071 -0.09
0.000308166 -0.125
0.000308261 -0.165
0.000308356 -0.21
0.000308452 -0.2
0.000308547 -0.2
0.000308642 -0.205
0.000308737 -0.22
0.000308833 -0.255
0.000308928 -0.255
0.000309023 -0.27
0.000309119 -0.265
0.000309215 -0.255
0.00030931 -0.25
0.000309406 -0.275
0.000309502 -0.285
0.000309598 -0.295
0.000309693 -0.29
0.000309789 -0.275
0.000309885 -0.28
0.000309981 -0.3
0.000310078 -0.31
0.000310174 -0.315
0.00031027 -0.32
0.000310366 -0.285
0.000310463 -0.325
0.000310559 -0.34
0.000310655 -0.355
0.000310752 -0.35
0.000310849 -0.34
0.000310945 -0.335
0.000311042 -0.335
0.000311139 -0.345
0.000311236 -0.325
0.000311333 -0.33
0.000311429 -0.345
0.000311526 -0.345
0.000311624 -0.36
0.000311721 -0.33
0.000311818 -0.32
0.000311915 -0.33
0.000312012 -0.325
0.00031211 -0.33
0.000312207 -0.335
0.000312305 -0.315
0.000312402 -0.31
0.0003125 -0.3
0.000312598 -0.27
0.000312695 -0.27
0.000312793 -0.275
0.000312891 -0.29
0.000312989 -0.295
0.000313087 -0.3
0.000313185 -0.28
0.000313283 -0.295
0.000313381 -0.285
0.00031348 -0.295
0.000313578 -0.28
0.000313676 -0.26
0.000313775 -0.27
0.000313873 -0.285
0.000313972 -0.3
0.00031407 -0.29
0.000314169 -0.29
0.000314268 -0.29
0.000314367 -0.275
0.000314465 -0.3
0.000314564 -0.305
0.000314663 -0.29
0.000314762 -0.29
0.000314861 -0.28
0.000314961 -0.28
0.00031506 -0.27
0.000315159 -0.295
0.000315259 -0.305
0.000315358 -0.32
0.000315457 -0.32
0.000315557 -0.3
0.000315657 -0.29
0.000315756 -0.285
0.000315856 -0.3
0.000315956 -0.305
0.000316056 -0.305
0.000316156 -0.3
0.000316256 -0.315
0.000316356 -0.32
0.000316456 -0.315
0.000316556 -0.325
0.000316656 -0.305
0.000316756 -0.27
0.000316857 -0.275
0.000316957 -0.29
0.000317058 -0.32
0.000317158 -0.32
0.000317259 -0.285
0.00031736 -0.26
0.00031746 -0.3
0.000317561 -0.335
0.000317662 -0.355
0.000317763 -0.34
0.000317864 -0.31
0.000317965 -0.295
0.000318066 -0.295
0.000318167 -0.31
0.000318269 -0.33
0.00031837 -0.355
0.000318471 -0.33
0.000318573 -0.325
0.000318674 -0.315
0.000318776 -0.33
0.000318878 -0.34
0.000318979 -0.34
0.000319081 -0.3
0.000319183 -0.275
0.000319285 -0.295
0.000319387 -0.33
0.000319489 -0.365
0.000319591 -0.36
0.000319693 -0.33
0.000319795 -0.315
0.000319898 -0.31
0.00032 -0.315
0.000320102 -0.335
0.000320205 -0.34
0.000320307 -0.325
0.00032041 -0.32
0.000320513 -0.31
0.000320616 -0.32
0.000320718 -0.305
0.000320821 -0.31
0.000320924 -0.31
0.000321027 -0.315
0.00032113 -0.315
0.000321234 -0.325
0.000321337 -0.33
0.00032144 -0.345
0.000321543 -0.32
0.000321647 -0.3
0.00032175 -0.3
0.000321854 -0.305
0.000321958 -0.32
0.000322061 -0.32
0.000322165 -0.305
0.000322269 -0.31
0.000322373 -0.34
0.000322477 -0.365
0.000322581 -0.365
0.000322685 -0.34
0.000322789 -0.325
0.000322893 -0.325
0.000322997 -0.31
0.000323102 -0.315
0.000323206 -0.305
0.000323311 -0.29
0.000323415 -0.285
0.00032352 -0.285
0.000323625 -0.31
0.000323729 -0.32
0.000323834 -0.3
0.000323939 -0.29
0.000324044 -0.285
0.000324149 -0.33
0.000324254 -0.35
0.000324359 -0.355
0.000324465 -0.34
0.00032457 -0.32
0.000324675 -0.32
0.000324781 -0.315
0.000324886 -0.33
0.000324992 -0.33
0.000325098 -0.325
0.000325203 -0.295
0.000325309 -0.29
0.000325415 -0.295
0.000325521 -0.28
0.000325627 -0.33
0.000325733 -0.33
0.000325839 -0.33
0.000325945 -0.3
0.000326052 -0.29
0.000326158 -0.29
0.000326264 -0.295
0.000326371 -0.315
0.000326477 -0.325
0.000326584 -0.285
0.000326691 -0.28
0.000326797 -0.26
0.000326904 -0.265
0.000327011 -0.25
0.000327118 -0.205
0.000327225 -0.165
0.000327332 -0.14
0.000327439 -0.135
0.000327547 -0.14
0.000327654 -0.105
0.000327761 -0.075
0.000327869 0.01
0.000327976 0.035
0.000328084 0.035
0.000328192 0.025
0.000328299 -0.01
0.000328407 -0.03
0.000328515 -0.07
0.000328623 -0.105
0.000328731 -0.115
0.000328839 -0.125
0.000328947 -0.16
0.000329056 -0.165
0.000329164 -0.17
0.000329272 -0.185
0.000329381 -0.21
0.000329489 -0.25
0.000329598 -0.265
0.000329707 -0.275
0.000329815 -0.275
0.000329924 -0.305
0.000330033 -0.285
0.000330142 -0.275
0.000330251 -0.25
0.00033036 -0.245
0.000330469 -0.26
0.000330579 -0.295
0.000330688 -0.305
0.000330797 -0.325
0.000330907 -0.34
0.000331016 -0.345
0.000331126 -0.36
0.000331236 -0.39
0.000331345 -0.435
0.000331455 -0.43
0.000331565 -0.285
0.000331675 0.02
0.000331785 0.47
0.000331895 1.005
0.000332005 1.47
0.000332116 1.77
0.000332226 1.95
0.000332336 2.03
0.000332447 2.01
0.000332557 1.865
0.000332668 1.535
0.000332779 0.95
0.000332889 0.31
0.000333 -0.33
0.000333111 -0.75
0.000333222 -0.615
0.000333333 -0.415
0.000333444 -0.355
0.000333556 -0.385
0.000333667 -0.405
0.000333778 -0.365
0.00033389 -0.33
0.000334001 -0.335
0.000334113 -0.35
0.000334225 -0.39
0.000334336 -0.41
0.000334448 -0.41
0.00033456 -0.415
0.000334672 -0.39
0.000334784 -0.39
0.000334896 -0.38
0.000335008 -0.385
0.000335121 -0.38
0.000335233 -0.395
0.000335345 -0.415
0.000335458 -0.435
0.00033557 -0.425
0.000335683 -0.405
0.000335796 -0.385
0.000335909 -0.39
0.000336022 -0.395
0.000336134 -0.4
0.000336247 -0.405
0.000336361 -0.39
0.000336474 -0.375
0.000336587 -0.385
0.0003367 -0.37
0.000336814 -0.36
0.000336927 -0.355
0.000337041 -0.335
0.000337154 -0.315
0.000337268 -0.33
0.000337382 -0.36
0.000337496 -0.355
0.00033761 -0.35
0.000337724 -0.345
0.000337838 -0.305
0.000337952 -0.295
0.000338066 -0.26
0.000338181 -0.295
0.000338295 -0.3
0.000338409 -0.29
0.000338524 -0.265
0.000338639 -0.255
0.000338753 -0.24
0.000338868 -0.25
0.000338983 -0.25
0.000339098 -0.235
0.000339213 -0.22
0.000339328 -0.185
0.000339443 -0.165
0.000339559 -0.15
0.000339674 -0.155
0.000339789 -0.13
0.000339905 -0.12
0.00034002 -0.105
0.000340136 -0.095
0.000340252 -0.06
0.000340368 -0.04
0.000340483 0
0.000340599 0.02
0.000340716 0.03
0.000340832 0.05
0.000340948 0.06
0.000341064 0.095
0.00034118 0.125
0.000341297 0.17
0.000341413 0.2
0.00034153 0.245
0.000341647 0.255
0.000341763 0.285
0.00034188 0.33
0.000341997 0.375
0.000342114 0.4
0.000342231 0.42
0.000342349 0.42
0.000342466 0.455
0.000342583 0.5
0.0003427 0.54
0.000342818 0.56
0.000342936 0.56
0.000343053 0.58
0.000343171 0.58
0.000343289 0.585
0.000343407 0.595
0.000343525 0.585
0.000343643 0.56
0.000343761 0.525
0.000343879 0.49
0.000343997 0.475
0.000344116 0.455
0.000344234 0.435
0.000344353 0.41
0.000344471 0.355
0.00034459 0.285
0.000344709 0.245
0.000344828 0.205
0.000344947 0.175
0.000345066 0.15
0.000345185 0.145
0.000345304 0.12
0.000345423 0.06
0.000345543 0.03
0.000345662 -0.005
0.000345781 -0.05
0.000345901 -0.065
0.000346021 -0.06
0.000346141 -0.065
0.00034626 -0.08
0.00034638 -0.095
0.0003465 -0.125
0.00034662 -0.15
0.000346741 -0.16
0.000346861 -0.16
0.000346981 -0.16
0.000347102 -0.185
0.000347222 -0.22
0.000347343 -0.25
0.000347464 -0.245
0.000347584 -0.245
0.000347705 -0.245
0.000347826 -0.265
0.000347947 -0.27
0.000348068 -0.275
0.000348189 -0.26
0.000348311 -0.255
0.000348432 -0.26
0.000348554 -0.3
0.000348675 -0.335
0.000348797 -0.345
0.000348918 -0.325
0.00034904 -0.315
0.000349162 -0.29
0.000349284 -0.29
0.000349406 -0.31
0.000349528 -0.33
0.00034965 -0.34
0.000349773 -0.335
0.000349895 -0.32
0.000350018 -0.32
0.00035014 -0.33
0.000350263 -0.335
0.000350385 -0.34
0.000350508 -0.32
0.000350631 -0.285
0.000350754 -0.265
0.000350877 -0.28
0.000351 -0.29
0.000351124 -0.315
0.000351247 -0.305
0.00035137 -0.28
0.000351494 -0.29
0.000351617 -0.3
0.000351741 -0.305
0.000351865 -0.29
0.000351989 -0.275
0.000352113 -0.27
0.000352237 -0.28
0.000352361 -0.295
0.000352485 -0.315
0.000352609 -0.28
0.000352734 -0.24
0.000352858 -0.225
0.000352983 -0.245
0.000353107 -0.255
0.000353232 -0.26
0.000353357 -0.265
0.000353482 -0.27
0.000353607 -0.25
0.000353732 -0.245
0.000353857 -0.25
0.000353982 -0.25
0.000354108 -0.255
0.000354233 -0.255
0.000354359 -0.225
0.000354484 -0.215
0.00035461 -0.25
0.000354736 -0.255
0.000354862 -0.255
0.000354988 -0.245
0.000355114 -0.23
0.00035524 -0.225
0.000355366 -0.235
0.000355492 -0.245
0.000355619 -0.24
0.000355745 -0.25
0.000355872 -0.265
0.000355999 -0.275
0.000356125 -0.29
0.000356252 -0.295
0.000356379 -0.31
0.000356506 -0.3
0.000356633 -0.29
0.000356761 -0.285
0.000356888 -0.29
0.000357015 -0.305
0.000357143 -0.3
0.00035727 -0.29
0.000357398 -0.295
0.000357526 -0.305
0.000357654 -0.31
0.000357782 -0.315
0.00035791 -0.32
0.000358038 -0.285
0.000358166 -0.275
0.000358295 -0.28
0.000358423 -0.295
0.000358551 -0.3
0.00035868 -0.31
0.000358809 -0.295
0.000358938 -0.29
0.000359066 -0.305
0.000359195 -0.32
0.000359324 -0.335
0.000359454 -0.32
0.000359583 -0.31
0.000359712 -0.305
0.000359842 -0.3
0.000359971 -0.315
0.000360101 -0.33
0.000360231 -0.345
0.00036036 -0.335
0.00036049 -0.32
0.00036062 -0.31
0.00036075 -0.325
0.000360881 -0.345
0.000361011 -0.37
0.000361141 -0.345
0.000361272 -0.325
0.000361402 -0.325
0.000361533 -0.325
0.000361664 -0.335
0.000361795 -0.335
0.000361925 -0.315
0.000362056 -0.3
0.000362188 -0.315
0.000362319 -0.31
0.00036245 -0.315
0.000362582 -0.33
0.000362713 -0.32
0.000362845 -0.3
0.000362976 -0.315
0.000363108 -0.325
0.00036324 -0.335
0.000363372 -0.325
0.000363504 -0.315
0.000363636 -0.315
0.000363769 -0.31
0.000363901 -0.35
0.000364033 -0.36
0.000364166 -0.345
0.000364299 -0.32
0.000364431 -0.295
0.000364564 -0.29
0.000364697 -0.295
0.00036483 -0.32
0.000364964 -0.325
0.000365097 -0.325
0.00036523 -0.32
0.000365364 -0.34
0.000365497 -0.33
0.000365631 -0.33
0.000365764 -0.335
0.000365898 -0.305
0.000366032 -0.31
0.000366166 -0.295
0.0003663 -0.325
0.000366435 -0.34
0.000366569 -0.34
0.000366703 -0.315
0.000366838 -0.305
0.000366972 -0.31
0.000367107 -0.32
0.000367242 -0.33
0.000367377 -0.325
0.000367512 -0.31
0.000367647 -0.29
0.000367782 -0.295
0.000367918 -0.31
0.000368053 -0.305
0.000368189 -0.305
0.000368324 -0.295
0.00036846 -0.285
0.000368596 -0.29
0.000368732 -0.285
0.000368868 -0.295
0.000369004 -0.31
0.00036914 -0.315
0.000369276 -0.315
0.000369413 -0.33
0.000369549 -0.325
0.000369686 -0.335
0.000369822 -0.32
0.000369959 -0.3
0.000370096 -0.275
0.000370233 -0.26
0.00037037 -0.265
0.000370508 -0.295
0.000370645 -0.3
0.000370782 -0.29
0.00037092 -0.235
0.000371058 -0.225
0.000371195 -0.19
0.000371333 -0.19
0.000371471 -0.155
0.000371609 -0.085
0.000371747 -0.02
0.000371885 0.055
0.000372024 0.07
0.000372162 0.025
0.000372301 0.005
0.000372439 -0.02
0.000372578 -0.06
0.000372717 -0.08
0.000372856 -0.085
0.000372995 -0.115
0.000373134 -0.135
0.000373274 -0.14
0.000373413 -0.175
0.000373552 -0.21
0.000373692 -0.235
0.000373832 -0.265
0.000373972 -0.285
0.000374111 -0.295
0.000374251 -0.305
0.000374392 -0.33
0.000374532 -0.325
0.000374672 -0.325
0.000374813 -0.33
0.000374953 -0.31
0.000375094 -0.31
0.000375235 -0.315
0.000375375 -0.345
0.000375516 -0.35
0.000375657 -0.335
0.000375799 -0.315
0.00037594 -0.31
0.000376081 -0.325
0.000376223 -0.39
0.000376364 -0.48
0.000376506 -0.5
0.000376648 -0.445
0.00037679 -0.265
0.000376932 0.02
0.000377074 0.455
0.000377216 0.94
0.000377358 1.42
0.000377501 1.73
0.000377644 1.92
0.000377786 2.01
0.000377929 1.99
0.000378072 1.825
0.000378215 1.48
0.000378358 0.95
0.000378501 0.31
0.000378644 -0.33
0.000378788 -0.755
0.000378931 -0.7
0.000379075 -0.51
0.000379219 -0.42
0.000379363 -0.41
0.000379507 -0.415
0.000379651 -0.39
0.000379795 -0.405
0.000379939 -0.405
0.000380084 -0.425
0.000380228 -0.41
0.000380373 -0.41
0.000380518 -0.41
0.000380662 -0.425
0.000380807 -0.435
0.000380952 -0.43
0.000381098 -0.425
0.000381243 -0.43
0.000381388 -0.435
0.000381534 -0.45
0.000381679 -0.465
0.000381825 -0.445
0.000381971 -0.435
0.000382117 -0.43
0.000382263 -0.45
0.000382409 -0.465
0.000382555 -0.47
0.000382702 -0.455
0.000382848 -0.42
0.000382995 -0.42
0.000383142 -0.41
0.000383289 -0.425
0.000383436 -0.415
0.000383583 -0.395
0.00038373 -0.375
0.000383877 -0.39
0.000384025 -0.405
0.000384172 -0.4
0.00038432 -0.4
0.000384468 -0.395
0.000384615 -0.405
0.000384763 -0.38
0.000384911 -0.35
0.00038506 -0.345
0.000385208 -0.345
0.000385356 -0.32
0.000385505 -0.3
0.000385654 -0.32
0.000385802 -0.34
0.000385951 -0.355
0.0003861 -0.35
0.00038625 -0.33
0.000386399 -0.285
0.000386548 -0.265
0.000386698 -0.28
0.000386847 -0.285
0.000386997 -0.275
0.000387147 -0.245
0.000387297 -0.215
0.000387447 -0.205
0.000387597 -0.2
0.000387747 -0.185
0.000387898 -0.18
0.000388048 -0.16
0.000388199 -0.14
0.00038835 -0.125
0.0003885 -0.115
0.000388651 -0.105
0.000388802 -0.1
0.000388954 -0.08
0.000389105 -0.045
0.000389257 -0.045
0.000389408 -0.03
0.00038956 0.005
0.000389712 0.035
0.000389864 0.09
0.000390016 0.13
0.000390168 0.175
0.00039032 0.18
0.000390472 0.19
0.000390625 0.235
0.000390778 0.265
0.00039093 0.345
0.000391083 0.39
0.000391236 0.395
0.000391389 0.395
0.000391543 0.415
0.000391696 0.45
0.00039185 0.495
0.000392003 0.53
0.000392157 0.535
0.000392311 0.55
0.000392465 0.54
0.000392619 0.545
0.000392773 0.55
0.000392927 0.56
0.000393082 0.545
0.000393236 0.535
0.000393391 0.515
0.000393546 0.49
0.000393701 0.475
0.000393856 0.43
0.000394011 0.395
0.000394166 0.355
0.000394322 0.31
0.000394477 0.28
0.000394633 0.255
0.000394789 0.225
0.000394945 0.175
0.000395101 0.15
0.000395257 0.12
0.000395413 0.105
0.00039557 0.1
0.000395726 0.05
0.000395883 0.025
0.00039604 -0.01
0.000396197 -0.02
0.000396354 -0.035
0.000396511 -0.055
0.000396668 -0.08
0.000396825 -0.09
0.000396983 -0.13
0.000397141 -0.155
0.000397298 -0.185
0.000397456 -0.18
0.000397614 -0.19
0.000397772 -0.2
0.000397931 -0.225
0.000398089 -0.245
0.000398248 -0.24
0.000398406 -0.245
0.000398565 -0.25
0.000398724 -0.28
0.000398883 -0.3
0.000399042 -0.325
0.000399202 -0.33
0.000399361 -0.315
0.000399521 -0.335
0.00039968 -0.35
0.00039984 -0.37
0.0004 -0.36
0.00040016 -0.35
0.00040032 -0.33
0.000400481 -0.325
0.000400641 -0.33
0.000400802 -0.365
0.000400962 -0.39
0.000401123 -0.395
0.000401284 -0.39
0.000401445 -0.365
0.000401606 -0.37
0.000401768 -0.375
0.000401929 -0.38
0.000402091 -0.365
0.000402253 -0.345
0.000402414 -0.355
0.000402576 -0.365
0.000402739 -0.37
0.000402901 -0.39
0.000403063 -0.37
0.000403226 -0.355
0.000403388 -0.35
0.000403551 -0.36
0.000403714 -0.375
0.000403877 -0.37
0.00040404 -0.37
0.000404204 -0.35
0.000404367 -0.345
0.000404531 -0.345
0.000404694 -0.365
0.000404858 -0.35
0.000405022 -0.345
0.000405186 -0.335
0.000405351 -0.33
0.000405515 -0.335
0.00040568 -0.32
0.000405844 -0.315
0.000406009 -0.305
0.000406174 -0.295
0.000406339 -0.305
0.000406504 -0.31
0.000406669 -0.305
0.000406835 -0.295
0.000407 -0.29
0.000407166 -0.295
0.000407332 -0.31
0.000407498 -0.325
0.000407664 -0.335
0.00040783 -0.32
0.000407997 -0.29
0.000408163 -0.295
0.00040833 -0.3
0.000408497 -0.31
0.000408664 -0.32
0.000408831 -0.315
0.000408998 -0.285
0.000409165 -0.26
0.000409333 -0.275
0.0004095 -0.3
0.000409668 -0.315
0.000409836 -0.31
0.000410004 -0.3
0.000410172 -0.29
0.000410341 -0.3
0.000410509 -0.315
0.000410678 -0.315
0.000410846 -0.315
0.000411015 -0.315
0.000411184 -0.31
0.000411353 -0.315
0.000411523 -0.315
0.000411692 -0.34
0.000411862 -0.355
0.000412031 -0.345
0.000412201 -0.33
0.000412371 -0.325
0.000412541 -0.315
0.000412712 -0.35
0.000412882 -0.345
0.000413052 -0.34
0.000413223 -0.335
0.000413394 -0.34
0.000413565 -0.355
0.000413736 -0.375
0.000413907 -0.365
0.000414079 -0.35
0.00041425 -0.335
0.000414422 -0.35
0.000414594 -0.36
0.000414766 -0.37
0.000414938 -0.37
0.00041511 -0.37
0.000415282 -0.355
0.000415455 -0.355
0.000415628 -0.37
0.0004158 -0.385
0.000415973 -0.375
0.000416146 -0.365
0.00041632 -0.34
0.000416493 -0.345
0.000416667 -0.36
0.00041684 -0.37
0.000417014 -0.365
0.000417188 -0.36
0.000417362 -0.365
0.000417537 -0.35
0.000417711 -0.355
0.000417885 -0.38
0.00041806 -0.39
0.000418235 -0.39
0.00041841 -0.365
0.000418585 -0.35
0.00041876 -0.36
0.000418936 -0.4
0.000419111 -0.415
0.000419287 -0.395
0.000419463 -0.385
0.000419639 -0.385
0.000419815 -0.37
0.000419992 -0.385
0.000420168 -0.375
0.000420345 -0.375
0.000420521 -0.365
0.000420698 -0.35
0.000420875 -0.38
0.000421053 -0.39
0.00042123 -0.385
0.000421408 -0.4
0.000421585 -0.365
0.000421763 -0.375
0.000421941 -0.39
0.000422119 -0.41
0.000422297 -0.395
0.000422476 -0.4
0.000422654 -0.4
0.000422833 -0.405
0.000423012 -0.4
0.000423191 -0.385
0.00042337 -0.38
0.000423549 -0.365
0.000423729 -0.39
0.000423908 -0.395
0.000424088 -0.415
0.000424268 -0.43
0.000424448 -0.42
0.000424628 -0.405
0.000424809 -0.39
0.000424989 -0.37
0.00042517 -0.38
0.000425351 -0.38
0.000425532 -0.395
0.000425713 -0.4
0.000425894 -0.395
0.000426076 -0.385
0.000426257 -0.395
0.000426439 -0.405
0.000426621 -0.395
0.000426803 -0.4
0.000426985 -0.385
0.000427168 -0.37
0.00042735 -0.39
0.000427533 -0.395
0.000427716 -0.395
0.000427899 -0.39
0.000428082 -0.38
0.000428266 -0.395
0.000428449 -0.42
0.000428633 -0.415
0.000428816 -0.385
0.000429 -0.355
0.000429185 -0.355
0.000429369 -0.355
0.000429553 -0.365
0.000429738 -0.38
0.000429923 -0.375
0.000430108 -0.375
0.000430293 -0.365
0.000430478 -0.37
0.000430663 -0.37
0.000430849 -0.39
0.000431034 -0.385
0.00043122 -0.365
0.000431406 -0.33
0.000431593 -0.32
0.000431779 -0.3
0.000431965 -0.31
0.000432152 -0.29
0.000432339 -0.255
0.000432526 -0.215
0.000432713 -0.14
0.0004329 -0.08
0.000433088 -0.065
0.000433276 -0.06
0.000433463 -0.085
0.000433651 -0.095
0.000433839 -0.125
0.000434028 -0.175
0.000434216 -0.19
0.000434405 -0.215
0.000434594 -0.22
0.000434783 -0.2
0.000434972 -0.205
0.000435161 -0.24
0.00043535 -0.29
0.00043554 -0.29
0.00043573 -0.305
0.00043592 -0.31
0.00043611 -0.36
0.0004363 -0.415
0.000436491 -0.455
0.000436681 -0.445
0.000436872 -0.435
0.000437063 -0.41
0.000437254 -0.4
0.000437445 -0.41
0.000437637 -0.425
0.000437828 -0.435
0.00043802 -0.41
0.000438212 -0.39
0.000438404 -0.37
0.000438596 -0.385
0.000438789 -0.405
0.000438982 -0.43
0.000439174 -0.47
0.000439367 -0.51
0.00043956 -0.53
0.000439754 -0.505
0.000439947 -0.405
0.000440141 -0.15
0.000440335 0.285
0.000440529 0.83
0.000440723 1.33
0.000440917 1.675
0.000441112 1.85
0.000441306 1.94
0.000441501 1.955
0.000441696 1.86
0.000441891 1.595
0.000442087 1.1
0.000442282 0.46
0.000442478 -0.18
0.000442674 -0.82
0.00044287 -0.83
0.000443066 -0.65
0.000443262 -0.54
0.000443459 -0.54
0.000443656 -0.545
0.000443853 -0.53
0.00044405 -0.5
0.000444247 -0.505
0.000444444 -0.5
0.000444642 -0.53
0.00044484 -0.51
0.000445038 -0.505
0.000445236 -0.495
0.000445434 -0.48
0.000445633 -0.51
0.000445831 -0.525
0.00044603 -0.52
0.000446229 -0.505
0.000446429 -0.485
0.000446628 -0.495
0.000446828 -0.515
0.000447027 -0.53
0.000447227 -0.535
0.000447427 -0.525
0.000447628 -0.5
0.000447828 -0.485
0.000448029 -0.52
0.000448229 -0.505
0.00044843 -0.505
0.000448632 -0.485
0.000448833 -0.475
0.000449035 -0.465
0.000449236 -0.475
0.000449438 -0.485
0.00044964 -0.485
0.000449843 -0.46
0.000450045 -0.46
0.000450248 -0.49
0.00045045 -0.5
0.000450653 -0.5
0.000450857 -0.475
0.00045106 -0.455
0.000451264 -0.43
0.000451467 -0.405
0.000451671 -0.415
0.000451875 -0.445
0.00045208 -0.47
0.000452284 -0.44
0.000452489 -0.395
0.000452694 -0.405
0.000452899 -0.415
0.000453104 -0.43
0.000453309 -0.42
0.000453515 -0.41
0.000453721 -0.36
0.000453926 -0.335
0.000454133 -0.34
0.000454339 -0.34
0.000454545 -0.33
0.000454752 -0.305
0.000454959 -0.27
0.000455166 -0.285
0.000455373 -0.29
0.000455581 -0.29
0.000455789 -0.265
0.000455996 -0.225
0.000456204 -0.175
0.000456413 -0.15
0.000456621 -0.125
0.00045683 -0.135
0.000457038 -0.13
0.000457247 -0.135
0.000457457 -0.11
0.000457666 -0.1
0.000457875 -0.065
0.000458085 -0.05
0.000458295 0.005
0.000458505 0.035
0.000458716 0.09
0.000458926 0.125
0.000459137 0.155
0.000459348 0.17
0.000459559 0.21
0.00045977 0.26
0.000459982 0.3
0.000460193 0.345
0.000460405 0.375
0.000460617 0.405
0.000460829 0.41
0.000461042 0.435
0.000461255 0.47
0.000461467 0.495
0.000461681 0.495
0.000461894 0.49
0.000462107 0.485
0.000462321 0.495
0.000462535 0.52
0.000462749 0.52
0.000462963 0.5
0.000463177 0.465
0.000463392 0.415
0.000463607 0.41
0.000463822 0.4
0.000464037 0.385
0.000464253 0.355
0.000464468 0.29
0.000464684 0.25
0.0004649 0.245
0.000465116 0.23
0.000465333 0.2
0.000465549 0.15
0.000465766 0.1
0.000465983 0.09
0.0004662 0.06
0.000466418 0.05
0.000466636 0.035
0.000466853 0.01
0.000467071 -0.04
0.00046729 -0.08
0.000467508 -0.08
0.000467727 -0.095
0.000467946 -0.105
0.000468165 -0.115
0.000468384 -0.15
0.000468604 -0.175
0.000468823 -0.16
0.000469043 -0.155
0.000469263 -0.165
0.000469484 -0.195
0.000469704 -0.21
0.000469925 -0.23
0.000470146 -0.225
0.000470367 -0.24
0.000470588 -0.255
0.00047081 -0.265
0.000471032 -0.31
0.000471254 -0.32
0.000471476 -0.31
0.000471698 -0.295
0.000471921 -0.3
0.000472144 -0.31
0.000472367 -0.32
0.00047259 -0.33
0.000472813 -0.345
0.000473037 -0.36
0.000473261 -0.345
0.000473485 -0.345
0.000473709 -0.355
0.000473934 -0.35
0.000474158 -0.35
0.000474383 -0.355
0.000474608 -0.34
0.000474834 -0.355
0.000475059 -0.355
0.000475285 -0.36
0.000475511 -0.33
0.000475737 -0.31
0.000475964 -0.32
0.00047619 -0.325
0.000476417 -0.335
0.000476644 -0.35
0.000476872 -0.355
0.000477099 -0.355
0.000477327 -0.33
0.000477555 -0.355
0.000477783 -0.33
0.000478011 -0.335
0.00047824 -0.33
0.000478469 -0.305
0.000478698 -0.28
0.000478927 -0.275
0.000479157 -0.265
0.000479386 -0.27
0.000479616 -0.26
0.000479846 -0.255
0.000480077 -0.255
0.000480307 -0.27
0.000480538 -0.275
0.000480769 -0.265
0.000481 -0.29
0.000481232 -0.26
0.000481464 -0.245
0.000481696 -0.24
0.000481928 -0.25
0.00048216 -0.255
0.000482393 -0.265
0.000482625 -0.265
0.000482859 -0.275
0.000483092 -0.27
0.000483325 -0.275
0.000483559 -0.27
0.000483793 -0.26
0.000484027 -0.235
0.000484262 -0.245
0.000484496 -0.26
0.000484731 -0.28
0.000484966 -0.28
0.000485201 -0.27
0.000485437 -0.24
0.000485673 -0.245
0.000485909 -0.275
0.000486145 -0.285
0.000486381 -0.27
0.000486618 -0.265
0.000486855 -0.255
0.000487092 -0.28
0.000487329 -0.285
0.000487567 -0.3
0.000487805 -0.3
0.000488043 -0.3
0.000488281 -0.305
0.00048852 -0.33
0.000488759 -0.315
0.000488998 -0.335
0.000489237 -0.34
0.000489476 -0.31
0.000489716 -0.305
0.000489956 -0.315
0.000490196 -0.34
0.000490436 -0.355
0.000490677 -0.34
0.000490918 -0.32
0.000491159 -0.315
0.0004914 -0.335
0.000491642 -0.35
0.000491884 -0.355
0.000492126 -0.335
0.000492368 -0.315
0.000492611 -0.305
0.000492854 -0.345
0.000493097 -0.36
0.00049334 -0.375
0.000493583 -0.365
0.000493827 -0.36
0.000494071 -0.35
0.000494315 -0.34
0.00049456 -0.34
0.000494805 -0.35
0.00049505 -0.335
0.000495295 -0.315
0.00049554 -0.32
0.000495786 -0.315
0.000496032 -0.34
0.000496278 -0.39
0.000496524 -0.385
0.000496771 -0.365
0.000497018 -0.365
0.000497265 -0.36
0.000497512 -0.36
0.00049776 -0.37
0.000498008 -0.365
0.000498256 -0.35
0.000498504 -0.355
0.000498753 -0.355
0.000499002 -0.36
0.000499251 -0.395
0.0004995 -0.4
0.00049975 -0.395
0.0005 -0.385
0.00050025 -0.375
0.000500501 -0.36
0.000500751 -0.39
0.000501002 -0.4
0.000501253 -0.395
0.000501505 -0.335
0.000501756 -0.33
0.000502008 -0.355
0.00050226 -0.38
0.000502513 -0.395
0.000502765 -0.39
0.000503018 -0.37
0.000503271 -0.35
0.000503525 -0.355
0.000503778 -0.35
0.000504032 -0.375
0.000504286 -0.365
0.000504541 -0.35
0.000504796 -0.33
0.000505051 -0.365
0.000505306 -0.365
0.000505561 -0.36
0.000505817 -0.35
0.000506073 -0.335
0.000506329 -0.335
0.000506586 -0.365
0.000506842 -0.395
0.000507099 -0.385
0.000507357 -0.37
0.000507614 -0.365
0.000507872 -0.37
0.00050813 -0.4
0.000508388 -0.41
0.000508647 -0.39
0.000508906 -0.4
0.000509165 -0.375
0.000509424 -0.37
0.000509684 -0.37
0.000509944 -0.395
0.000510204 -0.38
0.000510465 -0.375
0.000510725 -0.36
0.000510986 -0.355
0.000511247 -0.35
0.000511509 -0.34
0.000511771 -0.335
0.000512033 -0.34
0.000512295 -0.32
0.000512558 -0.31
0.000512821 -0.31
0.000513084 -0.31
0.000513347 -0.29
0.000513611 -0.255
0.000513875 -0.215
0.000514139 -0.185
0.000514403 -0.15
0.000514668 -0.115
0.000514933 -0.075
0.000515198 -0.05
0.000515464 -0.06
0.00051573 -0.075
0.000515996 -0.12
0.000516262 -0.14
0.000516529 -0.18
0.000516796 -0.19
0.000517063 -0.18
0.000517331 -0.185
0.000517598 -0.205
0.000517866 -0.23
0.000518135 -0.255
0.000518403 -0.265
0.000518672 -0.28
0.000518941 -0.295
0.000519211 -0.315
0.000519481 -0.35
0.000519751 -0.365
0.000520021 -0.365
0.000520291 -0.35
0.000520562 -0.355
0.000520833 -0.38
0.000521105 -0.4
0.000521376 -0.4
0.000521648 -0.38
0.000521921 -0.36
0.000522193 -0.355
0.000522466 -0.365
0.000522739 -0.38
0.000523013 -0.375
0.000523286 -0.39
0.00052356 -0.375
0.000523834 -0.395
0.000524109 -0.45
0.000524384 -0.51
0.000524659 -0.48
0.000524934 -0.34
0.00052521 -0.06
0.000525486 0.31
0.000525762 0.77
0.000526039 1.21
0.000526316 1.575
0.000526593 1.81
0.00052687 1.935
0.000527148 1.965
0.000527426 1.92
0.000527704 1.71
0.000527983 1.33
0.000528262 0.775
0.000528541 0.135
0.000528821 -0.495
0.000529101 -0.79
0.000529381 -0.72
0.000529661 -0.53
0.000529942 -0.44
0.000530223 -0.44
0.000530504 -0.45
0.000530786 -0.44
0.000531067 -0.42
0.00053135 -0.42
0.000531632 -0.43
0.000531915 -0.43
0.000532198 -0.455
0.000532481 -0.445
0.000532765 -0.46
0.000533049 -0.46
0.000533333 -0.47
0.000533618 -0.465
0.000533903 -0.445
0.000534188 -0.445
0.000534474 -0.445
0.000534759 -0.465
0.000535045 -0.46
0.000535332 -0.445
0.000535619 -0.44
0.000535906 -0.465
0.000536193 -0.455
0.000536481 -0.445
0.000536769 -0.43
0.000537057 -0.425
0.000537346 -0.42
0.000537634 -0.41
0.000537924 -0.415
0.000538213 -0.425
0.000538503 -0.415
0.000538793 -0.395
0.000539084 -0.4
0.000539374 -0.41
0.000539665 -0.435
0.000539957 -0.435
0.000540249 -0.4
0.000540541 -0.385
0.000540833 -0.385
0.000541126 -0.395
0.000541419 -0.39
0.000541712 -0.39
0.000542005 -0.36
0.000542299 -0.35
0.000542594 -0.36
0.000542888 -0.385
0.000543183 -0.37
0.000543478 -0.34
0.000543774 -0.325
0.00054407 -0.305
0.000544366 -0.305
0.000544662 -0.295
0.000544959 -0.29
0.000545256 -0.29
0.000545554 -0.275
0.000545852 -0.25
0.00054615 -0.235
0.000546448 -0.245
0.000546747 -0.24
0.000547046 -0.24
0.000547345 -0.2
0.000547645 -0.16
0.000547945 -0.14
0.000548246 -0.135
0.000548546 -0.13
0.000548847 -0.11
0.000549149 -0.09
0.000549451 -0.055
0.000549753 -0.04
0.000550055 -0.04
0.000550358 -0.03
0.000550661 -0.005
0.000550964 0.05
0.000551268 0.085
0.000551572 0.095
0.000551876 0.14
0.000552181 0.14
0.000552486 0.165
0.000552792 0.21
0.000553097 0.27
0.000553403 0.315
0.00055371 0.335
0.000554017 0.33
0.000554324 0.375
0.000554631 0.41
0.000554939 0.45
0.000555247 0.48
0.000555556 0.485
0.000555864 0.51
0.000556174 0.55
0.000556483 0.565
0.000556793 0.59
0.000557103 0.595
0.000557414 0.565
0.000557724 0.555
0.000558036 0.54
0.000558347 0.54
0.000558659 0.535
0.000558971 0.515
0.000559284 0.48
0.000559597 0.445
0.00055991 0.435
0.000560224 0.405
0.000560538 0.375
0.000560852 0.33
0.000561167 0.3
0.000561482 0.24
0.000561798 0.21
0.000562114 0.17
0.00056243 0.17
0.000562746 0.145
0.000563063 0.1
0.00056338 0.04
0.000563698 0.02
0.000564016 0.005
0.000564334 -0.01
0.000564653 -0.035
0.000564972 -0.06
0.000565291 -0.105
0.000565611 -0.13
0.000565931 -0.13
0.000566251 -0.12
0.000566572 -0.12
0.000566893 -0.155
0.000567215 -0.185
0.000567537 -0.195
0.000567859 -0.205
0.000568182 -0.2
0.000568505 -0.225
0.000568828 -0.24
0.000569152 -0.265
0.000569476 -0.285
0.000569801 -0.28
0.000570125 -0.285
0.000570451 -0.27
0.000570776 -0.295
0.000571102 -0.315
0.000571429 -0.33
0.000571755 -0.335
0.000572082 -0.335
0.00057241 -0.345
0.000572738 -0.36
0.000573066 -0.375
0.000573394 -0.375
0.000573723 -0.365
0.000574053 -0.36
0.000574383 -0.345
0.000574713 -0.345
0.000575043 -0.365
0.000575374 -0.37
0.000575705 -0.38
0.000576037 -0.355
0.000576369 -0.325
0.000576701 -0.33
0.000577034 -0.355
0.000577367 -0.365
0.000577701 -0.375
0.000578035 -0.355
0.000578369 -0.35
0.000578704 -0.355
0.000579039 -0.36
0.000579374 -0.345
0.00057971 -0.335
0.000580046 -0.31
0.000580383 -0.325
0.00058072 -0.33
0.000581058 -0.35
0.000581395 -0.34
0.000581734 -0.345
0.000582072 -0.345
0.000582411 -0.345
0.000582751 -0.335
0.00058309 -0.35
0.000583431 -0.36
0.000583771 -0.36
0.000584112 -0.335
0.000584454 -0.33
0.000584795 -0.335
0.000585138 -0.335
0.00058548 -0.33
0.000585823 -0.295
0.000586166 -0.28
0.00058651 -0.3
0.000586854 -0.33
0.000587199 -0.35
0.000587544 -0.33
0.000587889 -0.315
0.000588235 -0.295
0.000588582 -0.315
0.000588928 -0.31
0.000589275 -0.305
0.000589623 -0.295
0.000589971 -0.28
0.000590319 -0.265
0.000590667 -0.255
0.000591017 -0.275
0.000591366 -0.295
0.000591716 -0.325
0.000592066 -0.32
0.000592417 -0.275
0.000592768 -0.265
0.00059312 -0.275
0.000593472 -0.3
0.000593824 -0.315
0.000594177 -0.315
0.00059453 -0.285
0.000594884 -0.26
0.000595238 -0.28
0.000595593 -0.3
0.000595948 -0.325
0.000596303 -0.33
0.000596659 -0.315
0.000597015 -0.325
0.000597372 -0.335
0.000597729 -0.34
0.000598086 -0.35
0.000598444 -0.32
0.000598802 -0.31
0.000599161 -0.305
0.00059952 -0.31
0.00059988 -0.345
0.00060024 -0.325
0.000600601 -0.315
0.000600962 -0.3
0.000601323 -0.305
0.000601685 -0.33
0.000602047 -0.355
0.00060241 -0.33
0.000602773 -0.305
0.000603136 -0.31
0.0006035 -0.315
0.000603865 -0.32
0.00060423 -0.34
0.000604595 -0.355
0.000604961 -0.34
0.000605327 -0.325
0.000605694 -0.315
0.000606061 -0.315
0.000606428 -0.335
0.000606796 -0.335
0.000607165 -0.32
0.000607533 -0.29
0.000607903 -0.25
0.000608273 -0.28
0.000608643 -0.325
0.000609013 -0.33
0.000609385 -0.33
0.000609756 -0.32
0.000610128 -0.315
0.000610501 -0.29
0.000610874 -0.255
0.000611247 -0.25
0.000611621 -0.245
0.000611995 -0.275
0.00061237 -0.27
0.000612745 -0.255
0.000613121 -0.245
0.000613497 -0.21
0.000613874 -0.205
0.000614251 -0.18
0.000614628 -0.165
0.000615006 -0.195
0.000615385 -0.23
0.000615764 -0.255
0.000616143 -0.26
0.000616523 -0.27
0.000616903 -0.26
0.000617284 -0.25
0.000617665 -0.235
0.000618047 -0.225
0.000618429 -0.185
0.000618812 -0.16
0.000619195 -0.125
0.000619579 -0.13
0.000619963 -0.155
0.000620347 -0.18
0.000620732 -0.19
0.000621118 -0.17
0.000621504 -0.155
0.000621891 -0.15
0.000622278 -0.13
0.000622665 -0.115
0.000623053 -0.11
0.000623441 -0.11
0.00062383 -0.125
0.00062422 -0.12
0.00062461 -0.145
0.000625 -0.145
0.000625391 -0.12
0.000625782 -0.12
0.000626174 -0.1
0.000626566 -0.095
0.000626959 -0.11
0.000627353 -0.135
0.000627746 -0.125
0.000628141 -0.1
0.000628536 -0.095
0.000628931 -0.125
0.000629327 -0.15
0.000629723 -0.155
0.00063012 -0.13
0.000630517 -0.11
0.000630915 -0.1
0.000631313 -0.12
0.000631712 -0.12
0.000632111 -0.12
0.000632511 -0.09
0.000632911 -0.05
0.000633312 -0.04
0.000633714 -0.03
0.000634115 -0.015
0.000634518 -0.015
0.000634921 -0.02
0.000635324 -0.005
0.000635728 0.025
0.000636132 0.05
0.000636537 0.045
0.000636943 0.1
0.000637349 0.17
0.000637755 0.21
0.000638162 0.215
0.00063857 0.2
0.000638978 0.155
0.000639386 0.165
0.000639795 0.195
0.000640205 0.2
0.000640615 0.165
0.000641026 0.115
0.000641437 0.09
0.000641849 0.075
0.000642261 0.065
0.000642674 0.05
0.000643087 0
0.000643501 -0.045
0.000643915 -0.095
0.00064433 -0.09
0.000644745 -0.055
0.000645161 -0.03
0.000645578 -0.05
0.000645995 -0.07
0.000646412 -0.115
0.000646831 -0.155
0.000647249 -0.2
0.000647668 -0.225
0.000648088 -0.22
0.000648508 -0.175
0.000648929 -0.155
0.000649351 -0.15
0.000649773 -0.15
0.000650195 -0.145
0.000650618 -0.165
0.000651042 -0.2
0.000651466 -0.22
0.00065189 -0.235
0.000652316 -0.25
0.000652742 -0.185
0.000653168 -0.02
0.000653595 0.24
0.000654022 0.605
0.00065445 1.09
0.000654879 1.545
0.000655308 1.875
0.000655738 2.03
0.000656168 2.075
0.000656599 2.025
0.00065703 1.91
0.000657462 1.66
0.000657895 1.2
0.000658328 0.56
0.000658762 -0.08
0.000659196 -0.51
0.000659631 -0.47
0.000660066 -0.26
0.000660502 -0.15
0.000660939 -0.17
0.000661376 -0.21
0.000661813 -0.19
0.000662252 -0.17
0.000662691 -0.13
0.00066313 -0.14
0.00066357 -0.12
0.000664011 -0.13
0.000664452 -0.15
0.000664894 -0.175
0.000665336 -0.165
0.000665779 -0.155
0.000666223 -0.16
0.000666667 -0.19
0.000667111 -0.215
0.000667557 -0.215
0.000668003 -0.22
0.000668449 -0.22
0.000668896 -0.24
0.000669344 -0.25
0.000669792 -0.25
0.000670241 -0.23
0.000670691 -0.22
0.000671141 -0.185
0.000671592 -0.165
0.000672043 -0.175
0.000672495 -0.17
0.000672948 -0.15
0.000673401 -0.145
0.000673854 -0.145
0.000674309 -0.19
0.000674764 -0.22
0.000675219 -0.225
0.000675676 -0.22
0.000676133 -0.165
0.00067659 -0.13
0.000677048 -0.145
0.000677507 -0.175
0.000677966 -0.185
0.000678426 -0.17
0.000678887 -0.14
0.000679348 -0.105
0.00067981 -0.11
0.000680272 -0.125
0.000680735 -0.145
0.000681199 -0.155
0.000681663 -0.095
0.000682128 -0.04
0.000682594 0.01
0.00068306 0.04
0.000683527 0.03
0.000683995 0
0.000684463 -0.02
0.000684932 -0.04
0.000685401 -0.07
0.000685871 -0.07
0.000686342 -0.06
0.000686813 -0.005
0.000687285 0.025
0.000687758 0.03
0.000688231 0.055
0.000688705 0.065
0.00068918 0.05
0.000689655 0.07
0.000690131 0.115
0.000690608 0.14
0.000691085 0.16
0.000691563 0.185
0.000692042 0.205
0.000692521 0.255
0.000693001 0.295
0.000693481 0.325
0.000693963 0.355
0.000694444 0.35
0.000694927 0.365
0.00069541 0.41
0.000695894 0.455
0.000696379 0.48
0.000696864 0.5
0.00069735 0.515
0.000697837 0.54
0.000698324 0.57
0.000698812 0.58
0.000699301 0.625
0.00069979 0.635
0.00070028 0.65
0.000700771 0.665
0.000701262 0.69
0.000701754 0.71
0.000702247 0.71
0.000702741 0.71
0.000703235 0.69
0.00070373 0.66
0.000704225 0.635
0.000704722 0.615
0.000705219 0.59
0.000705716 0.565
0.000706215 0.525
0.000706714 0.495
0.000707214 0.465
0.000707714 0.44
0.000708215 0.45
0.000708717 0.435
0.00070922 0.38
0.000709723 0.32
0.000710227 0.315
0.000710732 0.28
0.000711238 0.25
0.000711744 0.21
0.000712251 0.175
0.000712758 0.135
0.000713267 0.125
0.000713776 0.135
0.000714286 0.13
0.000714796 0.1
0.000715308 0.06
0.00071582 0.045
0.000716332 0.045
0.000716846 0.01
0.00071736 -0.025
0.000717875 -0.075
0.000718391 -0.11
0.000718907 -0.13
0.000719424 -0.14
0.000719942 -0.11
0.000720461 -0.08
0.000720981 -0.08
0.000721501 -0.115
0.000722022 -0.155
0.000722543 -0.175
0.000723066 -0.155
0.000723589 -0.11
0.000724113 -0.105
0.000724638 -0.13
0.000725163 -0.16
0.000725689 -0.19
0.000726216 -0.16
0.000726744 -0.15
0.000727273 -0.165
0.000727802 -0.18
0.000728332 -0.19
0.000728863 -0.17
0.000729395 -0.155
0.000729927 -0.155
0.00073046 -0.145
0.000730994 -0.145
0.000731529 -0.155
0.000732064 -0.165
0.000732601 -0.17
0.000733138 -0.14
0.000733676 -0.155
0.000734214 -0.18
0.000734754 -0.21
0.000735294 -0.205
0.000735835 -0.18
0.000736377 -0.145
0.00073692 -0.15
0.000737463 -0.16
0.000738007 -0.2
0.000738552 -0.21
0.000739098 -0.21
0.000739645 -0.16
0.000740192 -0.14
0.000740741 -0.14
0.00074129 -0.155
0.00074184 -0.145
0.00074239 -0.135
0.000742942 -0.12
0.000743494 -0.115
0.000744048 -0.135
0.000744602 -0.15
0.000745156 -0.16
0.000745712 -0.16
0.000746269 -0.155
0.000746826 -0.155
0.000747384 -0.18
0.000747943 -0.195
0.000748503 -0.18
0.000749064 -0.17
0.000749625 -0.14
0.000750188 -0.15
0.000750751 -0.15
0.000751315 -0.17
0.00075188 -0.185
0.000752445 -0.175
0.000753012 -0.17
0.00075358 -0.165
0.000754148 -0.18
0.000754717 -0.215
0.000755287 -0.21
0.000755858 -0.18
0.00075643 -0.175
0.000757002 -0.185
0.000757576 -0.205
0.00075815 -0.19
0.000758725 -0.18
0.000759301 -0.175
0.000759878 -0.21
0.000760456 -0.225
0.000761035 -0.24
0.000761615 -0.25
0.000762195 -0.255
0.000762777 -0.23
0.000763359 -0.225
0.000763942 -0.24
0.000764526 -0.255
0.000765111 -0.255
0.000765697 -0.255
0.000766284 -0.245
0.000766871 -0.25
0.00076746 -0.265
0.000768049 -0.255
0.00076864 -0.295
0.000769231 -0.285
0.000769823 -0.27
0.000770416 -0.26
0.00077101 -0.275
0.000771605 -0.295
0.000772201 -0.32
0.000772798 -0.315
0.000773395 -0.295
0.000773994 -0.28
0.000774593 -0.305
0.000775194 -0.355
0.000775795 -0.4
0.000776398 -0.385
0.000777001 -0.32
0.000777605 -0.27
0.00077821 -0.26
0.000778816 -0.275
0.000779423 -0.31
0.000780031 -0.325
0.00078064 -0.315
0.00078125 -0.285
0.000781861 -0.285
0.000782473 -0.32
0.000783085 -0.355
0.000783699 -0.355
0.000784314 -0.33
0.000784929 -0.31
0.000785546 -0.285
0.000786164 -0.285
0.000786782 -0.295
0.000787402 -0.305
0.000788022 -0.305
0.000788644 -0.295
0.000789266 -0.315
0.000789889 -0.34
0.000790514 -0.37
0.000791139 -0.4
0.000791766 -0.39
0.000792393 -0.375
0.000793021 -0.345
0.000793651 -0.34
0.000794281 -0.355
0.000794913 -0.335
0.000795545 -0.32
0.000796178 -0.305
0.000796813 -0.33
0.000797448 -0.385
0.000798085 -0.395
0.000798722 -0.37
0.000799361 -0.32
0.0008 -0.275
0.000800641 -0.265
0.000801282 -0.285
0.000801925 -0.32
0.000802568 -0.335
0.000803213 -0.34
0.000803859 -0.335
0.000804505 -0.345
0.000805153 -0.36
0.000805802 -0.37
0.000806452 -0.365
0.000807103 -0.375
0.000807754 -0.39
0.000808407 -0.385
0.000809061 -0.39
0.000809717 -0.4
0.000810373 -0.405
0.00081103 -0.385
0.000811688 -0.36
0.000812348 -0.325
0.000813008 -0.305
0.00081367 -0.315
0.000814332 -0.295
0.000814996 -0.27
0.000815661 -0.255
0.000816327 -0.21
0.000816993 -0.185
0.000817661 -0.18
0.000818331 -0.135
0.000819001 -0.09
0.000819672 -0.01
0.000820345 0.04
0.000821018 0.075
0.000821693 0.05
0.000822368 0.005
0.000823045 -0.04
0.000823723 -0.055
0.000824402 -0.105
0.000825083 -0.165
0.000825764 -0.225
0.000826446 -0.205
0.00082713 -0.165
0.000827815 -0.145
0.0008285 -0.19
0.000829187 -0.28
0.000829876 -0.365
0.000830565 -0.415
0.000831255 -0.395
0.000831947 -0.375
0.000832639 -0.415
0.000833333 -0.46
0.000834028 -0.48
0.000834725 -0.46
0.000835422 -0.445
0.00083612 -0.435
0.00083682 -0.45
0.000837521 -0.42
0.000838223 -0.42
0.000838926 -0.43
0.000839631 -0.495
0.000840336 -0.505
0.000841043 -0.495
0.000841751 -0.495
0.00084246 -0.565
0.00084317 -0.625
0.000843882 -0.615
0.000844595 -0.495
0.000845309 -0.25
0.000846024 0.125
0.00084674 0.58
0.000847458 1.07
0.000848176 1.46
0.000848896 1.705
0.000849618 1.845
0.00085034 1.9
0.000851064 1.83
0.000851789 1.625
0.000852515 1.175
0.000853242 0.535
0.000853971 -0.105
0.000854701 -0.745
0.000855432 -1.035
0.000856164 -0.795
0.000856898 -0.595
0.000857633 -0.57
0.000858369 -0.605
0.000859107 -0.62
0.000859845 -0.59
0.000860585 -0.565
0.000861326 -0.55
0.000862069 -0.55
0.000862813 -0.54
0.000863558 -0.54
0.000864304 -0.53
0.000865052 -0.525
0.000865801 -0.53
0.000866551 -0.55
0.000867303 -0.58
0.000868056 -0.58
0.00086881 -0.61
0.000869565 -0.625
0.000870322 -0.64
0.00087108 -0.645
0.00087184 -0.665
0.0008726 -0.705
0.000873362 -0.725
0.000874126 -0.71
0.000874891 -0.67
0.000875657 -0.645
0.000876424 -0.615
0.000877193 -0.59
0.000877963 -0.555
0.000878735 -0.55
0.000879507 -0.58
0.000880282 -0.6
0.000881057 -0.635
0.000881834 -0.635
0.000882613 -0.64
0.000883392 -0.625
0.000884173 -0.62
0.000884956 -0.61
0.00088574 -0.61
0.000886525 -0.61
0.000887311 -0.595
0.000888099 -0.575
0.000888889 -0.54
0.00088968 -0.53
0.000890472 -0.53
0.000891266 -0.525
0.000892061 -0.525
0.000892857 -0.5
0.000893655 -0.49
0.000894454 -0.495
0.000895255 -0.485
0.000896057 -0.465
0.000896861 -0.475
0.000897666 -0.455
0.000898473 -0.435
0.000899281 -0.38
0.00090009 -0.34
0.000900901 -0.355
0.000901713 -0.41
0.000902527 -0.42
0.000903342 -0.395
0.000904159 -0.34
0.000904977 -0.295
0.000905797 -0.265
0.000906618 -0.25
0.000907441 -0.225
0.000908265 -0.21
0.000909091 -0.2
0.000909918 -0.18
0.000910747 -0.145
0.000911577 -0.11
0.000912409 -0.035
0.000913242 0.015
0.000914077 0.045
0.000914913 0.075
0.000915751 0.105
0.00091659 0.14
0.000917431 0.17
0.000918274 0.2
0.000919118 0.23
0.000919963 0.265
0.00092081 0.295
0.000921659 0.315
0.000922509 0.345
0.000923361 0.375
0.000924214 0.405
0.000925069 0.41
0.000925926 0.38
0.000926784 0.355
0.000927644 0.325
0.000928505 0.305
0.000929368 0.265
0.000930233 0.225
0.000931099 0.195
0.000931966 0.17
0.000932836 0.15
0.000933707 0.125
0.000934579 0.08
0.000935454 0.04
0.00093633 0.01
0.000937207 -0.01
0.000938086 -0.04
0.000938967 -0.09
0.00093985 -0.13
0.000940734 -0.145
0.00094162 -0.2
0.000942507 -0.245
0.000943396 -0.27
0.000944287 -0.275
0.00094518 -0.3
0.000946074 -0.31
0.00094697 -0.33
0.000947867 -0.35
0.000948767 -0.37
0.000949668 -0.39
0.00095057 -0.4
0.000951475 -0.425
0.000952381 -0.46
0.000953289 -0.475
0.000954198 -0.47
0.00095511 -0.465
0.000956023 -0.47
0.000956938 -0.47
0.000957854 -0.485
0.000958773 -0.52
0.000959693 -0.545
0.000960615 -0.56
0.000961538 -0.56
0.000962464 -0.565
0.000963391 -0.57
0.00096432 -0.565
0.000965251 -0.565
0.000966184 -0.56
0.000967118 -0.55
0.000968054 -0.53
0.000968992 -0.525
0.000969932 -0.55
0.000970874 -0.555
0.000971817 -0.56
0.000972763 -0.53
0.00097371 -0.525
0.000974659 -0.515
0.00097561 -0.52
0.000976563 -0.515
0.000977517 -0.51
0.000978474 -0.52
0.000979432 -0.515
0.000980392 -0.5
0.000981354 -0.5
0.000982318 -0.48
0.000983284 -0.465
0.000984252 -0.455
0.000985222 -0.475
0.000986193 -0.49
0.000987167 -0.495
0.000988142 -0.495
0.00098912 -0.485
0.000990099 -0.465
0.00099108 -0.43
0.000992063 -0.42
0.000993049 -0.41
0.000994036 -0.425
0.000995025 -0.45
0.000996016 -0.46
0.000997009 -0.45
0.000998004 -0.43
0.000999001 -0.43
0.001 -0.415
0.001001001 -0.41
0.001002004 -0.425
0.001003009 -0.44
0.001004016 -0.465
0.001005025 -0.47
0.001006036 -0.465
0.001007049 -0.44
0.001008065 -0.4
0.001009082 -0.375
0.001010101 -0.4
0.001011122 -0.44
0.001012146 -0.46
0.001013171 -0.46
0.001014199 -0.445
0.001015228 -0.46
0.00101626 -0.43
0.001017294 -0.455
0.00101833 -0.465
0.001019368 -0.455
0.001020408 -0.43
0.00102145 -0.41
0.001022495 -0.435
0.001023541 -0.475
0.00102459 -0.495
0.001025641 -0.47
0.001026694 -0.445
0.001027749 -0.435
0.001028807 -0.44
0.001029866 -0.45
0.001030928 -0.475
0.001031992 -0.485
0.001033058 -0.47
0.001034126 -0.505
0.001035197 -0.51
0.001036269 -0.535
0.001037344 -0.545
0.001038422 -0.53
0.001039501 -0.515
0.001040583 -0.5
0.001041667 -0.49
0.001042753 -0.485
0.001043841 -0.485
0.001044932 -0.485
0.001046025 -0.49
0.00104712 -0.49
0.001048218 -0.515
0.001049318 -0.505
0.00105042 -0.5
0.001051525 -0.48
0.001052632 -0.465
0.001053741 -0.475
0.001054852 -0.47
0.001055966 -0.475
0.001057082 -0.47
0.001058201 -0.475
0.001059322 -0.48
0.001060445 -0.455
0.001061571 -0.485
0.001062699 -0.525
0.00106383 -0.535
0.001064963 -0.515
0.001066098 -0.51
0.001067236 -0.485
0.001068376 -0.495
0.001069519 -0.495
0.001070664 -0.485
0.001071811 -0.495
0.001072961 -0.48
0.001074114 -0.485
0.001075269 -0.495
0.001076426 -0.51
0.001077586 -0.505
0.001078749 -0.46
0.001079914 -0.445
0.001081081 -0.44
0.001082251 -0.455
0.001083424 -0.495
0.001084599 -0.49
0.001085776 -0.485
0.001086957 -0.445
0.001088139 -0.425
0.001089325 -0.435
0.001090513 -0.45
0.001091703 -0.45
0.001092896 -0.395
0.001094092 -0.36
0.00109529 -0.35
0.001096491 -0.345
0.001097695 -0.375
0.001098901 -0.355
0.00110011 -0.35
0.001101322 -0.34
0.001102536 -0.325
0.001103753 -0.27
0.001104972 -0.22
0.001106195 -0.15
0.00110742 -0.1
0.001108647 -0.08
0.001109878 -0.085
0.001111111 -0.11
0.001112347 -0.17
0.001113586 -0.185
0.001114827 -0.205
0.001116071 -0.22
0.001117318 -0.225
0.001118568 -0.275
0.001119821 -0.32
0.001121076 -0.36
0.001122334 -0.38
0.001123596 -0.39
0.001124859 -0.385
0.001126126 -0.38
0.001127396 -0.41
0.001128668 -0.455
0.001129944 -0.48
0.001131222 -0.47
0.001132503 -0.475
0.001133787 -0.465
0.001135074 -0.49
0.001136364 -0.495
0.001137656 -0.485
0.001138952 -0.465
0.001140251 -0.45
0.001141553 -0.445
0.001142857 -0.475
0.001144165 -0.49
0.001145475 -0.5
0.001146789 -0.54
0.001148106 -0.58
0.001149425 -0.595
0.001150748 -0.52
0.001152074 -0.33
0.001153403 0.01
0.001154734 0.505
0.001156069 1.03
0.001157407 1.47
0.001158749 1.72
0.001160093 1.855
0.00116144 1.915
0.001162791 1.885
0.001164144 1.735
0.001165501 1.35
0.001166861 0.71
0.001168224 0.07
0.001169591 -0.57
0.00117096 -1.05
0.001172333 -0.88
0.001173709 -0.675
0.001175088 -0.625
0.001176471 -0.635
0.001177856 -0.625
0.001179245 -0.59
0.001180638 -0.575
0.001182033 -0.56
0.001183432 -0.565
0.001184834 -0.575
0.00118624 -0.56
0.001187648 -0.575
0.001189061 -0.57
0.001190476 -0.58
0.001191895 -0.585
0.001193317 -0.575
0.001194743 -0.555
0.001196172 -0.56
0.001197605 -0.57
0.001199041 -0.595
0.00120048 -0.62
0.001201923 -0.605
0.001203369 -0.6
0.001204819 -0.575
0.001206273 -0.565
0.001207729 -0.555
0.00120919 -0.57
0.001210654 -0.575
0.001212121 -0.555
0.001213592 -0.54
0.001215067 -0.525
0.001216545 -0.53
0.001218027 -0.55
0.001219512 -0.55
0.001221001 -0.535
0.001222494 -0.535
0.00122399 -0.525
0.00122549 -0.505
0.001226994 -0.53
0.001228501 -0.545
0.001230012 -0.53
0.001231527 -0.515
0.001233046 -0.49
0.001234568 -0.48
0.001236094 -0.475
0.001237624 -0.475
0.001239157 -0.465
0.001240695 -0.445
0.001242236 -0.405
0.001243781 -0.385
0.00124533 -0.385
0.001246883 -0.41
0.001248439 -0.425
0.00125 -0.415
0.001251564 -0.415
0.001253133 -0.39
0.001254705 -0.365
0.001256281 -0.35
0.001257862 -0.32
0.001259446 -0.29
0.001261034 -0.275
0.001262626 -0.285
0.001264223 -0.31
0.001265823 -0.285
0.001267427 -0.255
0.001269036 -0.195
0.001270648 -0.155
0.001272265 -0.12
0.001273885 -0.125
0.00127551 -0.1
0.001277139 -0.065
0.001278772 0.005
0.00128041 0.055
0.001282051 0.08
0.001283697 0.105
0.001285347 0.1
0.001287001 0.095
0.00128866 0.115
0.001290323 0.195
0.00129199 0.23
0.001293661 0.285
0.001295337 0.305
0.001297017 0.345
0.001298701 0.39
0.00130039 0.43
0.001302083 0.445
0.001303781 0.44
0.001305483 0.455
0.00130719 0.465
0.001308901 0.475
0.001310616 0.48
0.001312336 0.45
0.00131406 0.43
0.001315789 0.39
0.001317523 0.37
0.001319261 0.355
0.001321004 0.34
0.001322751 0.31
0.001324503 0.275
0.00132626 0.25
0.001328021 0.225
0.001329787 0.22
0.001331558 0.185
0.001333333 0.135
0.001335113 0.085
0.001336898 0.065
0.001338688 0.04
0.001340483 0.025
0.001342282 -0.03
0.001344086 -0.09
0.001345895 -0.135
0.001347709 -0.135
0.001349528 -0.155
0.001351351 -0.155
0.00135318 -0.175
0.001355014 -0.22
0.001356852 -0.25
0.001358696 -0.27
0.001360544 -0.255
0.001362398 -0.255
0.001364256 -0.27
0.00136612 -0.29
0.001367989 -0.305
0.001369863 -0.335
0.001371742 -0.325
0.001373626 -0.33
0.001375516 -0.36
0.00137741 -0.38
0.00137931 -0.37
0.001381215 -0.355
0.001383126 -0.35
0.001385042 -0.36
0.001386963 -0.38
0.001388889 -0.41
0.001390821 -0.44
0.001392758 -0.435
0.0013947 -0.445
0.001396648 -0.47
0.001398601 -0.49
0.00140056 -0.515
0.001402525 -0.51
0.001404494 -0.495
0.00140647 -0.475
0.001408451 -0.46
0.001410437 -0.445
0.001412429 -0.45
0.001414427 -0.465
0.001416431 -0.495
0.00141844 -0.475
0.001420455 -0.46
0.001422475 -0.445
0.001424501 -0.435
0.001426534 -0.455
0.001428571 -0.445
0.001430615 -0.44
0.001432665 -0.405
0.00143472 -0.415
0.001436782 -0.415
0.001438849 -0.435
0.001440922 -0.45
0.001443001 -0.43
0.001445087 -0.4
0.001447178 -0.4
0.001449275 -0.405
0.001451379 -0.42
0.001453488 -0.42
0.001455604 -0.415
0.001457726 -0.405
0.001459854 -0.39
0.001461988 -0.4
0.001464129 -0.39
0.001466276 -0.375
0.001468429 -0.365
0.001470588 -0.345
0.001472754 -0.34
0.001474926 -0.355
0.001477105 -0.385
0.00147929 -0.38
0.001481481 -0.375
0.00148368 -0.37
0.001485884 -0.355
0.001488095 -0.345
0.001490313 -0.38
0.001492537 -0.39
0.001494768 -0.375
0.001497006 -0.36
0.00149925 -0.355
0.001501502 -0.365
0.001503759 -0.365
0.001506024 -0.355
0.001508296 -0.34
0.001510574 -0.35
0.001512859 -0.37
0.001515152 -0.385
0.001517451 -0.425
0.001519757 -0.405
0.00152207 -0.42
0.00152439 -0.395
0.001526718 -0.39
0.001529052 -0.39
0.001531394 -0.395
0.001533742 -0.41
0.001536098 -0.39
0.001538462 -0.37
0.001540832 -0.38
0.00154321 -0.41
0.001545595 -0.44
0.001547988 -0.455
0.001550388 -0.435
0.001552795 -0.41
0.00155521 -0.41
0.001557632 -0.41
0.001560062 -0.435
0.0015625 -0.455
0.001564945 -0.47
0.001567398 -0.445
0.001569859 -0.42
0.001572327 -0.405
0.001574803 -0.425
0.001577287 -0.445
0.001579779 -0.445
0.001582278 -0.44
0.001584786 -0.425
0.001587302 -0.445
0.001589825 -0.445
0.001592357 -0.43
0.001594896 -0.425
0.001597444 -0.425
0.0016 -0.44
0.001602564 -0.455
0.001605136 -0.465
0.001607717 -0.48
0.001610306 -0.49
0.001612903 -0.465
0.001615509 -0.45
0.001618123 -0.45
0.001620746 -0.465
0.001623377 -0.455
0.001626016 -0.44
0.001628664 -0.41
0.001631321 -0.435
0.001633987 -0.455
0.001636661 -0.455
0.001639344 -0.46
0.001642036 -0.46
0.001644737 -0.455
0.001647446 -0.475
0.001650165 -0.475
0.001652893 -0.495
0.001655629 -0.495
0.001658375 -0.48
0.00166113 -0.46
0.001663894 -0.44
0.001666667 -0.44
0.001669449 -0.465
0.001672241 -0.47
0.001675042 -0.475
0.001677852 -0.45
0.001680672 -0.455
0.001683502 -0.445
0.001686341 -0.46
0.001689189 -0.47
0.001692047 -0.495
0.001694915 -0.475
0.001697793 -0.445
0.00170068 -0.435
0.001703578 -0.465
0.001706485 -0.47
0.001709402 -0.445
0.001712329 -0.44
0.001715266 -0.46
0.001718213 -0.48
0.00172117 -0.475
0.001724138 -0.465
0.001727116 -0.44
0.001730104 -0.395
0.001733102 -0.39
0.001736111 -0.38
0.00173913 -0.375
0.00174216 -0.34
0.001745201 -0.315
0.001748252 -0.265
0.001751313 -0.245
0.001754386 -0.2
0.001757469 -0.15
0.001760563 -0.115
0.001763668 -0.1
0.001766784 -0.1
0.001769912 -0.1
0.00177305 -0.095
0.001776199 -0.1
0.001779359 -0.145
0.001782531 -0.15
0.001785714 -0.15
0.001788909 -0.185
0.001792115 -0.255
0.001795332 -0.335
0.001798561 -0.37
0.001801802 -0.37
0.001805054 -0.36
0.001808318 -0.355
0.001811594 -0.385
0.001814882 -0.435
0.001818182 -0.46
0.001821494 -0.48
0.001824818 -0.48
0.001828154 -0.45
0.001831502 -0.44
0.001834862 -0.435
0.001838235 -0.46
0.001841621 -0.46
0.001845018 -0.45
0.001848429 -0.45
0.001851852 -0.475
0.001855288 -0.495
0.001858736 -0.51
0.001862197 -0.51
0.001865672 -0.52
0.001869159 -0.565
0.001872659 -0.605
0.001876173 -0.615
0.001879699 -0.54
0.001883239 -0.34
0.001886792 -0.03
0.001890359 0.44
0.001893939 0.95
0.001897533 1.35
0.001901141 1.63
0.001904762 1.79
0.001908397 1.87
0.001912046 1.845
0.001915709 1.75
0.001919386 1.5
0.001923077 1.05
0.001926782 0.41
0.001930502 -0.23
0.001934236 -0.785
0.001937984 -0.855
0.001941748 -0.71
0.001945525 -0.585
0.001949318 -0.59
0.001953125 -0.585
0.001956947 -0.57
0.001960784 -0.545
0.001964637 -0.53
0.001968504 -0.535
0.001972387 -0.545
0.001976285 -0.55
0.001980198 -0.565
0.001984127 -0.59
0.001988072 -0.59
0.001992032 -0.595
0.001996008 -0.59
0.002 -0.58
0.002004008 -0.57
0.002008032 -0.575
0.002012072 -0.57
0.002016129 -0.57
0.002020202 -0.555
0.002024291 -0.535
0.002028398 -0.51
0.00203252 -0.52
0.00203666 -0.535
0.002040816 -0.56
0.00204499 -0.57
0.00204918 -0.57
0.002053388 -0.56
0.002057613 -0.555
0.002061856 -0.545
0.002066116 -0.555
0.002070393 -0.52
0.002074689 -0.505
0.002079002 -0.505
0.002083333 -0.52
0.002087683 -0.535
0.00209205 -0.52
0.002096436 -0.51
0.00210084 -0.49
0.002105263 -0.485
0.002109705 -0.495
0.002114165 -0.48
0.002118644 -0.47
0.002123142 -0.445
0.00212766 -0.42
0.002132196 -0.415
0.002136752 -0.435
0.002141328 -0.445
0.002145923 -0.45
0.002150538 -0.425
0.002155172 -0.405
0.002159827 -0.41
0.002164502 -0.405
0.002169197 -0.41
0.002173913 -0.38
0.002178649 -0.375
0.002183406 -0.35
0.002188184 -0.345
0.002192982 -0.35
0.002197802 -0.365
0.002202643 -0.375
0.002207506 -0.33
0.002212389 -0.29
0.002217295 -0.26
0.002222222 -0.25
0.002227171 -0.25
0.002232143 -0.235
0.002237136 -0.195
0.002242152 -0.18
0.002247191 -0.145
0.002252252 -0.13
0.002257336 -0.11
0.002262443 -0.1
0.002267574 -0.07
0.002272727 -0.04
0.002277904 -0.005
0.002283105 0.02
0.00228833 0.03
0.002293578 0.05
0.002298851 0.075
0.002304147 0.11
0.002309469 0.16
0.002314815 0.205
0.002320186 0.23
0.002325581 0.245
0.002331002 0.275
0.002336449 0.325
0.00234192 0.335
0.002347418 0.375
0.002352941 0.39
0.002358491 0.425
0.002364066 0.455
0.002369668 0.49
0.002375297 0.49
0.002380952 0.445
0.002386635 0.365
0.002392344 0.335
0.002398082 0.35
0.002403846 0.37
0.002409639 0.37
0.002415459 0.34
0.002421308 0.315
0.002427184 0.3
0.00243309 0.275
0.002439024 0.25
0.002444988 0.215
0.00245098 0.17
0.002457002 0.12
0.002463054 0.085
0.002469136 0.075
0.002475248 0.055
0.00248139 0.035
0.002487562 -0.005
0.002493766 -0.045
0.0025 -0.075
0.002506266 -0.085
0.002512563 -0.105
0.002518892 -0.145
0.002525253 -0.175
0.002531646 -0.195
0.002538071 -0.205
0.002544529 -0.21
0.00255102 -0.2
0.002557545 -0.215
0.002564103 -0.235
0.002570694 -0.275
0.00257732 -0.315
0.002583979 -0.34
0.002590674 -0.35
0.002597403 -0.38
0.002604167 -0.4
0.002610966 -0.42
0.002617801 -0.43
0.002624672 -0.42
0.002631579 -0.405
0.002638522 -0.435
0.002645503 -0.465
0.00265252 -0.5
0.002659574 -0.495
0.002666667 -0.465
0.002673797 -0.475
0.002680965 -0.465
0.002688172 -0.47
0.002695418 -0.495
0.002702703 -0.505
0.002710027 -0.505
0.002717391 -0.5
0.002724796 -0.505
0.00273224 -0.51
0.002739726 -0.52
0.002747253 -0.505
0.002754821 -0.5
0.002762431 -0.495
0.002770083 -0.495
0.002777778 -0.49
0.002785515 -0.52
0.002793296 -0.515
0.00280112 -0.53
0.002808989 -0.51
0.002816901 -0.51
0.002824859 -0.51
0.002832861 -0.52
0.002840909 -0.51
0.002849003 -0.475
0.002857143 -0.465
0.00286533 -0.475
0.002873563 -0.47
0.002881844 -0.47
0.002890173 -0.495
0.002898551 -0.51
0.002906977 -0.51
0.002915452 -0.51
0.002923977 -0.53
0.002932551 -0.515
0.002941176 -0.5
0.002949853 -0.495
0.00295858 -0.5
0.002967359 -0.495
0.00297619 -0.485
0.002985075 -0.48
0.002994012 -0.495
0.003003003 -0.485
0.003012048 -0.48
0.003021148 -0.46
0.003030303 -0.465
0.003039514 -0.44
0.00304878 -0.41
0.003058104 -0.39
0.003067485 -0.41
0.003076923 -0.47
0.00308642 -0.555
0.003095975 -0.615
0.00310559 -0.635
0.003115265 -0.605
0.003125 -0.58
0.003134796 -0.57
0.003144654 -0.555
0.003154574 -0.565
0.003164557 -0.56
0.003174603 -0.525
0.003184713 -0.465
0.003194888 -0.415
0.003205128 -0.415
0.003215434 -0.505
0.003225806 -0.6
0.003236246 -0.615
0.003246753 -0.54
0.003257329 -0.455
0.003267974 -0.38
0.003278689 -0.41
0.003289474 -0.48
0.00330033 -0.525
0.003311258 -0.485
0.003322259 -0.455
0.003333333 -0.545
0.003344482 -0.67
0.003355705 -0.71
0.003367003 -0.665
0.003378378 -0.655
0.003389831 -0.73
0.003401361 -0.81
0.003412969 -0.78
0.003424658 -0.67
0.003436426 -0.64
0.003448276 -0.66
0.003460208 -0.695
0.003472222 -0.74
0.003484321 -0.73
0.003496503 -0.7
0.003508772 -0.675
0.003521127 -0.67
0.003533569 -0.66
0.003546099 -0.66
0.003558719 -0.67
0.003571429 -0.67
0.003584229 -0.675
0.003597122 -0.67
0.003610108 -0.65
0.003623188 -0.635
0.003636364 -0.655
0.003649635 -0.675
0.003663004 -0.665
0.003676471 -0.65
0.003690037 -0.635
0.003703704 -0.66
0.003717472 -0.685
0.003731343 -0.685
0.003745318 -0.67
0.003759398 -0.665
0.003773585 -0.665
0.003787879 -0.675
0.003802281 -0.69
0.003816794 -0.695
0.003831418 -0.68
0.003846154 -0.67
0.003861004 -0.65
0.003875969 -0.665
0.003891051 -0.685
0.00390625 -0.685
0.003921569 -0.665
0.003937008 -0.64
0.003952569 -0.665
0.003968254 -0.7
0.003984064 -0.74
0.004 -0.715
0.004016064 -0.68
0.004032258 -0.66
0.004048583 -0.645
0.004065041 -0.655
0.004081633 -0.67
0.004098361 -0.68
0.004115226 -0.675
0.004132231 -0.68
0.004149378 -0.68
0.004166667 -0.675
0.0041841 -0.685
0.004201681 -0.67
0.004219409 -0.695
0.004237288 -0.69
0.004255319 -0.675
0.004273504 -0.66
0.004291845 -0.685
0.004310345 -0.685
0.004329004 -0.675
0.004347826 -0.665
0.004366812 -0.66
0.004385965 -0.665
0.004405286 -0.675
0.004424779 -0.675
0.004444444 -0.67
0.004464286 -0.65
0.004484305 -0.635
0.004504505 -0.64
0.004524887 -0.645
0.004545455 -0.66
0.00456621 -0.65
0.004587156 -0.625
0.004608295 -0.61
0.00462963 -0.61
0.004651163 -0.585
0.004672897 -0.58
0.004694836 -0.545
0.004716981 -0.515
0.004739336 -0.475
0.004761905 -0.43
0.004784689 -0.39
0.004807692 -0.345
0.004830918 -0.325
0.004854369 -0.315
0.004878049 -0.31
0.004901961 -0.325
0.004926108 -0.35
0.004950495 -0.365
0.004975124 -0.365
0.005 -0.345
0.005025126 -0.37
0.005050505 -0.42
0.005076142 -0.48
0.005102041 -0.51
0.005128205 -0.51
0.005154639 -0.515
0.005181347 -0.54
0.005208333 -0.56
0.005235602 -0.575
0.005263158 -0.58
0.005291005 -0.575
0.005319149 -0.6
0.005347594 -0.605
0.005376344 -0.645
0.005405405 -0.665
0.005434783 -0.68
0.005464481 -0.655
0.005494505 -0.64
0.005524862 -0.635
0.005555556 -0.615
0.005586592 -0.62
0.005617978 -0.63
0.005649718 -0.63
0.005681818 -0.65
0.005714286 -0.685
0.005747126 -0.73
0.005780347 -0.695
0.005813953 -0.565
0.005847953 -0.3
0.005882353 0.085
0.00591716 0.575
0.005952381 1.055
0.005988024 1.41
0.006024096 1.67
0.006060606 1.84
0.006097561 1.93
0.006134969 1.905
0.00617284 1.75
0.00621118 1.395
0.00625 0.83
0.006289308 0.19
0.006329114 -0.45
0.006369427 -0.975
0.006410256 -1.025
0.006451613 -0.9
0.006493506 -0.79
0.006535948 -0.77
0.006578947 -0.75
0.006622517 -0.755
0.006666667 -0.745
0.006711409 -0.745
0.006756757 -0.715
0.006802721 -0.69
0.006849315 -0.66
0.006896552 -0.685
0.006944444 -0.69
0.006993007 -0.675
0.007042254 -0.67
0.007092199 -0.66
0.007142857 -0.675
0.007194245 -0.66
0.007246377 -0.67
0.00729927 -0.715
0.007352941 -0.74
0.007407407 -0.725
0.007462687 -0.68
0.007518797 -0.63
0.007575758 -0.615
0.007633588 -0.65
0.007692308 -0.655
0.007751938 -0.68
0.0078125 -0.69
0.007874016 -0.655
0.007936508 -0.66
0.008 -0.675
0.008064516 -0.67
0.008130081 -0.65
0.008196721 -0.62
0.008264463 -0.615
0.008333333 -0.635
0.008403361 -0.65
0.008474576 -0.63
0.008547009 -0.61
0.00862069 -0.57
0.008695652 -0.56
0.00877193 -0.585
0.008849558 -0.6
0.008928571 -0.575
0.009009009 -0.545
0.009090909 -0.52
0.009174312 -0.515
0.009259259 -0.545
0.009345794 -0.525
0.009433962 -0.515
0.00952381 -0.505
0.009615385 -0.475
0.009708738 -0.45
0.009803922 -0.455
0.00990099 -0.475
0.01 -0.49
0.01010101 -0.475
0.010204082 -0.43
0.010309278 -0.405
0.010416667 -0.4
0.010526316 -0.39
0.010638298 -0.405
0.010752688 -0.37
0.010869565 -0.35
0.010989011 -0.325
0.011111111 -0.33
0.011235955 -0.33
0.011363636 -0.33
0.011494253 -0.29
0.011627907 -0.26
0.011764706 -0.225
0.011904762 -0.225
0.012048193 -0.21
0.012195122 -0.195
0.012345679 -0.165
0.0125 -0.125
0.012658228 -0.09
0.012820513 -0.085
0.012987013 -0.1
0.013157895 -0.07
0.013333333 -0.01
0.013513514 0.05
0.01369863 0.09
0.013888889 0.085
0.014084507 0.1
0.014285714 0.12
0.014492754 0.175
0.014705882 0.2
0.014925373 0.23
0.015151515 0.255
0.015384615 0.255
0.015625 0.265
0.015873016 0.275
0.016129032 0.315
0.016393443 0.32
0.016666667 0.325
0.016949153 0.31
0.017241379 0.31
0.01754386 0.29
0.017857143 0.32
0.018181818 0.32
0.018518519 0.31
0.018867925 0.28
0.019230769 0.23
0.019607843 0.17
0.02 0.135
0.020408163 0.135
0.020833333 0.155
0.021276596 0.145
0.02173913 0.115
0.022222222 0.05
0.022727273 -0.025
0.023255814 -0.115
0.023809524 -0.155
0.024390244 -0.175
0.025 -0.19
0.025641026 -0.2
0.026315789 -0.195
0.027027027 -0.21
0.027777778 -0.25
0.028571429 -0.27
0.029411765 -0.3
0.03030303 -0.305
0.03125 -0.31
0.032258065 -0.305
0.033333333 -0.33
0.034482759 -0.365
0.035714286 -0.38
0.037037037 -0.37
0.038461538 -0.365
0.04 -0.36
0.041666667 -0.395
0.043478261 -0.425
0.045454545 -0.445
0.047619048 -0.445
0.05 -0.43
0.052631579 -0.45
0.055555556 -0.455
0.058823529 -0.455
0.0625 -0.47
0.066666667 -0.465
0.071428571 -0.465
0.076923077 -0.45
0.083333333 -0.46
0.090909091 -0.475
0.1 -0.48
0.111111111 -0.465
0.125 -0.445
0.142857143 -0.44
0.166666667 -0.46
0.2 -0.495
0.25 -0.495
0.333333333 -0.475
0.5 -0.455
1 -0.445
2 -0.44
